time[s],x[m],y[m],vx[m/s],vy[m/s],theta[rad],theta_dot[rad/s],gamma[rad],alpha[rad],mass[kg],mass_propellant[kg]
449.7000000000337,26080.493899983205,40290.3263634887,-18.244794037559945,-1642.2903247665206,1.5637732396589805,-0.03219000055601298,4.701280077628515,-3.1375068379695343,974174.4525036933,527339.8084899818
449.8000000000337,26078.6852617682,40126.11215462319,-18.086382150046724,-1642.142088655083,1.560312775381627,-0.03460464277353438,4.701375529721741,-3.1410627543401137,973859.6829778185,527025.038964107
449.90000000003374,26076.880373495867,39962.01499398027,-18.048882723326305,-1640.9716064291276,1.5568281524564604,-0.034846229251664924,4.701390523812123,-3.144562371355663,973276.7046229495,526442.060609238
450.00000000003376,26075.071555881506,39798.20789996104,-18.088176143621304,-1638.0709401923332,1.5534929505691057,-0.03335201887354786,4.7013470648199505,-3.147854114250845,972222.28759211,525387.6435783985
450.1000000000338,26073.24399320792,39634.83347896422,-18.275626735831374,-1633.7442099681723,1.5506036594531831,-0.02889291115922566,4.701203101727032,-3.1505994422738484,970773.9898170839,523939.34580337245
450.2000000000338,26071.38508119675,39471.920713575986,-18.589120111720604,-1629.1276538823288,1.5483936176998219,-0.022100417533613123,4.700979000712918,-3.152585383013096,969242.3511134627,522407.7070997512
450.30000000003383,26069.48446168282,39309.454799151994,-19.006195139283303,-1624.6591442399044,1.5470397901195236,-0.013538275802983248,4.700690940068623,-3.1536511499490993,967747.040150872,520912.3961371605
450.40000000003386,26067.53683211233,39147.46730977445,-19.476295704874953,-1619.8748937754012,1.546647337642767,-0.0039245247675674284,4.700366226430164,-3.153718888787397,966165.4379028577,519330.7938891461
450.5000000000339,26065.541020314875,38985.965351672065,-19.95811797456787,-1615.0195810238645,1.547238213367189,0.005908757244219439,4.700031791450434,-3.1527935780832452,964566.4863956493,517731.8423819377
450.6000000000339,26063.500651359136,38824.95069570034,-20.40368955739583,-1610.1465597172253,1.548747631251949,0.015094178847600365,4.699717713033156,-3.1509700817812067,962967.5348884409,516132.8908747293
450.7000000000339,26061.424100115455,38664.426118907315,-20.765512436818153,-1605.2457679302418,1.5510284649312536,0.022808336793046342,4.699453668757614,-3.1484252038263603,961368.5833812325,514533.9393675209
450.80000000003395,26059.323863649275,38504.395118749184,-21.002364661793564,-1600.3100015812975,1.5538628826031193,0.0283441767186572,4.699265798647301,-3.1454029160441817,959769.631874024,512934.9878603125
450.90000000003397,26057.216829560355,38344.86178661423,-21.07034088918549,-1595.3333213495598,1.5569605682307346,0.03097685627615232,4.699182263279375,-3.14222169504864,958170.6803668156,511336.0363531041
451.000000000034,26055.115753244354,38185.83009198596,-21.01076315999402,-1590.3169462826572,1.5600944172486844,0.03133849017949736,4.699178066125784,-3.1390836488770995,956571.7288596072,509737.0848458957
451.100000000034,26053.030820123386,38027.29961804346,-20.84933120968041,-1585.3047394250684,1.563077122517013,0.02982705268328701,4.699238114972925,-3.1361609924559115,954972.7773523988,508138.1333386873
451.20000000003404,26050.979729938987,37869.26686572261,-20.51090184400069,-1580.327523208459,1.5656073035595774,0.025301810425644323,4.699410816073385,-3.1338035125138077,953373.8258451904,506539.1818314789
451.30000000003406,26048.976702538566,37711.72974417086,-20.03027400420455,-1575.3712155175158,1.567443651973876,0.01836348414298574,4.6996750279311374,-3.1322313759572618,951774.874337982,504940.2303242705
451.4000000000341,26047.031687134582,37554.6869220066,-19.450154039855757,-1570.4282216425672,1.568418514316249,0.009748623423731553,4.700004358567839,-3.1315858442515903,950175.9228307736,503341.2788170621
451.5000000000341,26045.14943615222,37398.13825536267,-18.82250982362317,-1565.486666439353,1.5684528514343594,0.00034337118110412505,4.7003661357992375,-3.1319132843648783,948576.9713235652,501742.3273098537
451.60000000003413,26043.32889935996,37242.08498010512,-18.20536792258527,-1560.532752575431,1.5675653493477582,-0.008875020866013541,4.700723386021103,-3.133158036673345,946978.0198163568,500143.3758026453
451.70000000003415,26041.563233477602,37086.52967203719,-17.656658823574404,-1555.5530806793222,1.5658712499730103,-0.016940993747479424,4.701038740516526,-3.1351674905435156,945379.0683091484,498544.4242954369
451.8000000000342,26039.840404891092,36931.47595274414,-17.228285865086484,-1550.5371929304974,1.5635713901152057,-0.022998598578046325,4.7012782653335545,-3.137706875218349,943780.11680194,496945.4727882285
451.9000000000342,26038.143035500347,36776.928389386834,-16.97369390747192,-1545.4756335730513,1.5609520966873027,-0.026192934279029127,4.701406593397654,-3.140454496710351,942181.1652947316,495346.5212810201
452.0000000000342,26036.456920020744,36622.891895979905,-16.86115479602435,-1540.3649340693257,1.5582533093383233,-0.02698787348979465,4.701443209652059,-3.143189900313735,940582.2137875232,493747.5697738117
452.10000000003424,26034.770896252958,36469.36716779534,-16.860237677854162,-1535.247281845669,1.5556679907104827,-0.025853186278406392,4.701407322831418,-3.1457393321209355,938983.2622803148,492148.61826660327
452.20000000003427,26033.069253613055,36316.35119363912,-17.0164263990054,-1530.1597415621688,1.5534542799893591,-0.022137107211235924,4.7012687525307175,-3.1478144725413584,937384.3107731064,490549.66675939487
452.3000000000343,26031.33579022329,36163.84213847573,-17.33463389766519,-1525.0905516338853,1.5518727455293766,-0.015815344599826163,4.701023171689564,-3.1491504261601877,935785.359265898,488950.71525218646
452.4000000000343,26029.560153682934,36011.83903573446,-17.756365403534843,-1520.0310274127214,1.5510895776955678,-0.007831678338087681,4.700707930803775,-3.149618353108207,934186.4077586896,487351.76374497806
452.50000000003433,26027.73808839619,35860.34204517003,-18.220652867450625,-1514.9699056443117,1.5511724945560483,0.0008291686048051364,4.70036248775682,-3.1491899932007716,932587.4562514812,485752.81223776966
452.60000000003436,26025.871927509954,35709.35178431926,-18.66160886235322,-1509.9026085077194,1.5520836331206462,0.009111385645979915,4.700030131134654,-3.147946498014008,930990.691822925,484156.04780921346
452.7000000000344,26023.970025695344,35558.85020429665,-19.019018146117844,-1505.0158002261264,1.5536839600116612,0.01600326891014929,4.699752564328581,-3.14606860431692,929447.4428698807,482612.7988561691
452.8000000000344,26022.047035397554,35408.83398908803,-19.229902977902064,-1500.1621520862057,1.5557411550901332,0.020571950784719906,4.699571132794161,-3.143829977704028,927921.5431760304,481086.8991623188
452.9000000000344,26020.12057108617,35259.30881007858,-19.26464311384736,-1495.251790094484,1.5579791406057342,0.022379855156009064,4.699505814213577,-3.1415266736078427,926394.3812064168,479559.7371927052
453.00000000003445,26018.201338885447,35110.27983843991,-19.192322007202826,-1490.2897163867788,1.5602225610080356,0.022434204023014354,4.699511443291925,-3.1392888822838896,924859.9683628888,478025.32434917724
453.10000000003447,26016.30162976941,34961.752284166956,-18.99709116037197,-1485.2755427294921,1.562273648545761,0.02051087537725371,4.6995993970406875,-3.1373257484949266,923309.6446632651,476475.00064955355
453.2000000000345,26014.438418177153,34813.73208142481,-18.632115922552277,-1480.2020274214979,1.5638692278177926,0.015955792720316605,4.699802095887121,-3.135932868069329,921734.6474590745,474900.0034453629
453.3000000000345,26012.62517534492,34666.22700203997,-18.132428322300033,-1475.0507938484552,1.5648024254257717,0.009331976079790711,4.700096851096501,-3.1352944256707294,920135.6959518661,473301.0519381545
453.40000000003454,26010.868241815104,34519.23679224036,-17.56933529817224,-1469.9020979960665,1.5649755891749817,0.00173163749210032,4.700436824729287,-3.1354612355543057,918536.7444446577,471702.1004309461
453.50000000003456,26009.166832862044,34372.75464913246,-17.014089530608018,-1464.8214310789986,1.5644004134575014,-0.005751757174803716,4.7007743739206775,-3.1363739604631764,916958.1218483032,470123.4778345916
453.6000000000346,26007.513028803973,34226.75640332748,-16.538040580690865,-1459.9824580497968,1.5631957124012088,-0.012047010562925954,4.7010619036846295,-3.137866191283421,915447.3991167905,468612.7551030788
453.7000000000346,26005.891495896904,34081.23585426117,-16.215329070705042,-1455.2054906631117,1.5615920593655612,-0.016036530356475984,4.701246459212534,-3.1396543998469726,913962.5387941494,467127.89478043775
453.80000000003463,26004.287845491297,33936.19474826016,-16.036504056050433,-1450.4110600101178,1.5598091582673834,-0.017829010981777558,4.701332907333306,-3.1415237490659225,912486.000801642,465651.35678793036
453.90000000003465,26002.69016525752,33791.63541240788,-15.976802337769369,-1445.5933585228424,1.5580317959685466,-0.01777362298836774,4.70133735803311,-3.1433055620645636,911009.7563845551,464175.11237084353
454.0000000000347,26001.0883342091,33647.560384874414,-16.01831048422416,-1440.7502753346325,1.556418343579106,-0.01613452389440731,4.701271404496642,-3.144853060917536,909526.5399767655,462691.8959630539
454.1000000000347,25999.470792653854,33503.97157979721,-16.175415552470586,-1435.8880507720685,1.5551451609808875,-0.01273182598218323,4.701124361695918,-3.14597920071503,908033.3866188222,461198.74260511063
454.2000000000347,25997.823144784645,33360.87353230719,-16.476478692087923,-1430.980474900219,1.5544253023837638,-0.007198585971236589,4.700875370718901,-3.1464500683351373,906522.8400146444,459688.1960009329
454.30000000003474,25996.13953031032,33218.274891659916,-16.83614474325916,-1425.9864064727517,1.5543471652984946,-0.0007813708526906212,4.700582863280355,-3.1462356979818598,904990.3646613884,458155.7206476769
454.40000000003477,25994.421912021127,33076.18537732875,-17.17618289192556,-1420.895143311667,1.5548841031192269,0.005369378207322764,4.700301285938152,-3.145417182818925,903436.4742488504,456601.83023513877
454.5000000000348,25992.680068610884,32934.60459231095,-17.41843410244754,-1415.8078501780142,1.5558931318558178,0.01009028736591017,4.700086777536262,-3.144193645680444,901890.5099247354,455055.8659110238
454.6000000000348,25990.92738012518,32793.50982803801,-17.526884857033483,-1410.9476427294044,1.5571735778228397,0.01280445967021903,4.699967553183224,-3.1427939753603837,900412.5188369206,453577.874823209
454.70000000003483,25989.17324326159,32652.89061033372,-17.54136863589816,-1406.192177042886,1.5585821276375431,0.014085498147034057,4.699915252300993,-3.14133312466345,898968.6244244437,452133.9804107321
454.80000000003486,25987.427482395855,32512.742055863495,-17.45760865735843,-1401.485544702263,1.5599707811393528,0.013886535018096747,4.699933121761025,-3.139962340621672,897539.5546300475,450704.910616336
454.9000000000349,25985.700880362576,32373.06289965632,-17.266020332780773,-1396.7915620717267,1.5611801267762613,0.012093456369085194,4.700028409580554,-3.1388482828042927,896112.7599779711,449278.11596425954
455.0000000000349,25984.001890862986,32233.853979855117,-16.989894995902713,-1392.0891980120236,1.562085414832457,0.009052880561956897,4.700184984021425,-3.1380995691889684,894680.1088680382,447845.4648543266
455.1000000000349,25982.340259483073,32095.118083859466,-16.616313799139014,-1387.3589599565103,1.5625475445591954,0.0046212972673844365,4.700412613902346,-3.1378650693431505,893235.9649567677,446401.3209430562
455.20000000003495,25980.72029890999,31956.86087216898,-16.199605730827013,-1382.5721169048406,1.5625061200059962,-0.000414245531991788,4.700672510585082,-3.1381663905790855,891777.1284781244,444942.4844644129
455.30000000003497,25979.137596017652,31819.090208558777,-15.82702892338406,-1377.7066361020622,1.562023961164726,-0.004821588412702497,4.700901532827542,-3.138877571662816,890303.7608672342,443469.1168535228
455.400000000035,25977.58363875099,31681.814156019467,-15.539572666592697,-1372.7605253930906,1.5612226236537035,-0.00801337511022598,4.70106951957755,-3.1398468959238466,888818.7097250491,441984.06571133767
455.500000000035,25976.050856994072,31545.0393483289,-15.327817569200251,-1367.7480769056488,1.5602126555617468,-0.010099680919567283,4.701182840736153,-3.140970185174406,887324.9986006827,440490.3545869712
455.60000000003504,25974.529809255528,31408.771402087586,-15.210477385457263,-1362.6794624131508,1.5591307816826614,-0.010818738790853938,4.701227261037515,-3.142096479354854,885824.095371238,438989.45135752653
455.70000000003506,25973.011458608285,31273.00727775188,-15.183506472406652,-1357.6412433570806,1.558106778415088,-0.010240032675735124,4.701205706774479,-3.143098928359391,884332.7033762317,437498.05936252023
455.8000000000351,25971.48631629202,31137.718626034868,-15.251423162674516,-1352.8865171701184,1.5572707638901362,-0.008360145249517,4.701116211429456,-3.14384544753932,882910.9285323771,436076.2845186656
455.9000000000351,25969.947354459924,31002.89208335507,-15.389618320951708,-1348.2654267979922,1.5567197969158137,-0.005509669743224418,4.700975092803123,-3.1442552958873096,881520.1239692835,434685.47995557194
456.00000000003513,25968.390649958023,30868.52313870757,-15.567045019013172,-1343.6894464750183,1.5565083757346114,-0.0021142118120239983,4.700804198908106,-3.1442958231734943,880139.6233032227,433304.97928951104
456.10000000003515,25966.815480336445,30734.612263553503,-15.751696215757162,-1339.1087515406534,1.5566466654752642,0.0013828974065276142,4.700626702101495,-3.143980036626231,878759.4748918319,431924.8308781202
456.2000000000352,25965.224384428042,30601.16248629316,-15.910959084031221,-1334.4977726034324,1.5570996078232113,0.004529423479471512,4.700466738517326,-3.1433671306941147,877375.8625234031,430541.21850969153
456.3000000000352,25963.62297988534,30468.177708536346,-16.014045427020548,-1329.8477775681506,1.557789640359485,0.006900325362738387,4.700347548501755,-3.14255790814227,875988.1256756369,429153.48166192527
456.4000000000352,25962.01905300694,30335.66155101814,-16.03926878398808,-1325.1615751820773,1.5586093586838519,0.008197183243667857,4.700285938828584,-3.1416765801447317,874596.7193590797,427762.07534536807
456.50000000003524,25960.42233629614,30203.61662381855,-15.967167108016683,-1320.4492719958923,1.5594253653700472,0.008160066861952158,4.700297346676914,-3.1408719813068666,873201.9077647341,426367.26375102246
456.60000000003527,25958.83952048496,30072.04224481773,-15.828158111793167,-1315.7437900081834,1.5601442723084347,0.007189069383875874,4.700359742803402,-3.140215470494967,871809.8703102953,424975.2262965836
456.7000000000353,25957.27749050583,29940.93878230151,-15.620299791283074,-1311.0346251622016,1.5606716247774224,0.0052735246898774416,4.700475061081272,-3.13980343630385,870416.5558878841,423581.9118741724
456.8000000000353,25955.740970062663,29810.307931401563,-15.36520443164858,-1306.3085089994606,1.5609431566063021,0.0027153182887964065,4.700627213709515,-3.1396840571032127,869018.6472833797,422184.00326966797
456.90000000003533,25954.231337096066,29680.152768722484,-15.09632966599117,-1301.5516267907892,1.5609402829898682,-2.8736164340115427e-05,4.700790782941797,-3.1398504999519288,867614.4272104722,420779.78319676046
457.00000000003536,25952.74721237568,29550.47714907792,-14.841247203828367,-1296.7561964456465,1.5606821601334466,-0.0025812285642150324,4.700944578346738,-3.1402624182132914,866203.8662847435,419369.22227103176
457.1000000000354,25951.284167771457,29421.285119955894,-14.63044604226454,-1291.920291220254,1.5602288878249004,-0.004532723085461302,4.7010648911526065,-3.1408360033277063,864787.9478987454,417953.30388503365
457.2000000000354,25949.83594505155,29292.580049155073,-14.48222719909052,-1287.0507080082145,1.5596649838571046,-0.005639039677957448,4.701137196798291,-3.141472212941186,863367.8756489917,416533.2316352799
457.3000000000354,25948.39452571981,29164.36479502226,-14.414193317382718,-1282.1525413281456,1.5590976560152054,-0.005673278418992773,4.701147271114662,-3.142049615099457,861944.163314865,415109.51930115325
457.40000000003545,25946.95466635824,29036.616974980345,-14.39859361568593,-1277.478200419139,1.5585944367748863,-0.005032192403192499,4.701118350533408,-3.1425239137585215,860575.2435138092,413740.5995000974
457.50000000003547,25945.510153395717,28909.317910858026,-14.445129625234133,-1272.9906412231812,1.5582345358481977,-0.003599009266886728,4.7010420708285645,-3.142807534980367,859252.8818897714,412418.2378760596
457.6000000000355,25944.05741288619,28782.461838637337,-14.527405095251806,-1268.560722206897,1.5580642008900842,-0.0017033495811345704,4.70093760102009,-3.1428734001300063,857945.2569097336,411110.61289602175
457.7000000000355,25942.59544442214,28656.047007098055,-14.619684640540191,-1264.1483153927988,1.5580963179187814,0.0003211702869722606,4.700824646721202,-3.1427283288024204,856643.0186847966,409808.3746710848
457.80000000003554,25941.125986649957,28530.08937446564,-14.694577721821238,-1259.576326324181,1.5583107729221888,0.0021445500340743725,4.700723223562946,-3.142412450640757,855305.494880217,408470.8508665052
457.90000000003556,25939.65306961657,28404.600298033616,-14.729170333867327,-1254.8907643202317,1.5586568623887194,0.003460894665306695,4.700652107015774,-3.1419952446270543,853943.1507385669,407108.506724855
458.0000000000356,25938.18234532947,28279.58598313704,-14.70724287096875,-1250.1431489657473,1.5590621838203984,0.004053214316789424,4.70062507603943,-3.141562892219032,852567.0534350552,405732.40942134324
458.1000000000356,25936.717157902654,28155.044430532453,-14.651874268149179,-1245.4155260458863,1.5594818257067846,0.0041964188638614845,4.700624875919747,-3.1411430502129623,851199.7481644327,404365.10415072076
458.20000000003563,25935.26383587848,28030.957599040503,-14.533220241742159,-1240.8683149195117,1.5598318526778785,0.003500269710937648,4.700677378440908,-3.1408455257630292,849875.0234239943,403040.3794102824
458.30000000003565,25933.8265815135,27907.321336681995,-14.372543649789069,-1236.36262358509,1.5600576505249473,0.0022579784706885067,4.700764642989315,-3.1407069924643674,848560.9107586317,401726.2667449198
458.4000000000357,25932.407525316747,27784.135148957772,-14.1905619675083,-1231.8618772422358,1.5601318015091126,0.0007415098416534956,4.700869885121129,-3.1407380836120167,847250.5263308961,400415.88231718424
458.5000000000357,25931.00635596461,27661.399239591254,-14.011693521366384,-1227.3590936651874,1.5600581355644088,-0.0007366594470389319,4.70097334421463,-3.1409152086502217,845941.4041789238,399106.760165212
458.6000000000357,25929.62058938474,27539.11508489284,-13.857665798725906,-1222.841546984131,1.5598681923135833,-0.0018994325082542288,4.701057117586613,-3.1411889252730294,844632.017835949,397797.37382223713
458.70000000003574,25928.246144276414,27417.282644983236,-13.744451083266151,-1218.324399096049,1.5596133674727333,-0.002548248408499767,4.701108021020583,-3.14149465354785,843322.4700578481,396487.8260441363
458.80000000003577,25926.877909358944,27295.904415190882,-13.682349174691348,-1213.7822979235207,1.559358026959489,-0.002553405132441195,4.701116967513877,-3.1417589405543875,842011.1315323922,395176.48751868046
458.9000000000358,25925.514685834445,27174.981202806815,-13.632235244974895,-1209.2321238406678,1.5591184938162586,-0.002395331432305845,4.701115993578608,-3.1419974997623497,840699.3233041808,393864.6792904689
459.0000000000358,25924.152322967748,27054.51341412976,-13.623628666989338,-1204.677886770553,1.5589464914257358,-0.001720023905226197,4.701080523513081,-3.142134032087345,839386.428927541,392551.7849138292
459.10000000003583,25922.788532259485,26934.503856775947,-13.637907082615943,-1200.0955735381324,1.5588708885134472,-0.0007560291228859346,4.7010254520471975,-3.14215456353375,838071.3915488762,391236.7475351643
