time,x,y,vx,vy,theta,theta_dot,gamma,alpha,mass,mass_propellant
0.09935979255212624,-5.58274350860376e-06,0.043916028703612296,-5.618714940125238e-05,0.4419899395479618,1.5708033168267765,7.035070928038237e-05,1.5709234499352016,-0.00012013310842506897,6939484.65670682,4162665.3627881757
0.19871958510425247,-1.647079554993902e-05,0.13180898993031914,-0.00010958207300627324,0.8845928415218496,1.5708167985516264,0.00013568591986264919,1.570920205337998,-0.00010340678637166256,6936618.929917186,4159799.635998541
0.2980793776563787,-3.2959452315379495e-05,0.26374060130028143,-0.00016594898541872637,1.3278168963642734,1.5708361385421719,0.00019464604392577294,1.5709213056116365,-8.516706946459784e-05,6933753.132313846,4156933.8383952016
0.39743917020850494,-5.599738679102259e-05,0.4397730196554761,-0.00023186375377703118,1.7716665245938827,1.570860634998102,0.0002465429456016643,1.5709272000429004,-6.656504479840564e-05,6930887.256753461,4154067.9628348174
0.4967989627606312,-8.562846497843703e-05,0.659972055198888,-0.0002982200085801242,2.216178495218686,1.5708889409614528,0.0002848834787577587,1.5709308917712392,-4.195080978641741e-05,6928021.230767233,4151201.936848589
0.5961587553127574,-0.00012354731525009366,0.9244011127454427,-0.00038163173752364286,2.661328599371115,1.5709201485262283,0.0003140864526181921,1.57093972574796,-1.9577221731736927e-05,6925155.105127743,4148335.8112090994
0.6955185478648837,-0.00017180170183213236,1.233123787957818,-0.0004856530528354658,3.1071187578256363,1.5709533265623965,0.00033391813042202203,1.5709526301378756,6.964245209406528e-07,6922288.877791409,4145469.583872765
0.7948783404170099,-0.00023272531356475636,1.5862037078916695,-0.0006131616237087269,3.5535492865347758,1.5709875458868052,0.00034439810641474376,1.5709688758629359,1.867002386934935e-05,6919422.549958885,4142603.2560402397
0.8942381329691361,-0.0003088272329897443,1.983704496764119,-0.0007659226883456232,4.000620156930302,1.5710218872987578,0.00034562684835088214,1.5709877777822294,3.410951652838001e-05,6916556.123526846,4139736.829608201
0.9935979255212624,-0.0004022008614285985,2.425690792181661,-0.0009397526508508802,4.448341568201914,1.5710552594876452,0.00033587216750585307,1.5710075858950494,4.767359259583159e-05,6913689.579775962,4136870.285857317
1.0929577180733885,-0.0005147182300584874,2.912227469977263,-0.0011324235461830285,4.896715917964047,1.571086536696874,0.00031478738456845224,1.5710275886334364,5.8948063437647136e-05,6910822.915508778,4134003.6215901333
1.1923175106255148,-0.0006484172556694889,3.4433784674502976,-0.00134560491902054,5.345733760407981,1.5711147744226035,0.0002841967057707212,1.571048042452823,6.67319697804647e-05,6907956.152083958,4131136.858165313
1.2916773031776412,-0.0008048508247516713,4.019207890752502,-0.0015744152142841287,5.7953967949370675,1.571139005447658,0.000243871534269499,1.5710679932969949,7.101215066307454e-05,6905089.287695983,4128269.9937773393
1.3910370957297675,-0.00098473847065594,4.639780484072384,-0.0018104672049299607,6.245711443029804,1.5711581567558408,0.0001927470628804902,1.571086200441916,7.195631392487023e-05,6902222.311274404,4125403.0173557596
1.4903968882818939,-0.0011907557351032308,5.305155142725121,-0.0020734470066371153,6.6966188390909425,1.5711722093076443,0.0001414309696366616,1.571105952740497,6.625656714742689e-05,6899355.343094763,4122536.0491761193
1.5897566808340202,-0.0014249043651641876,6.015390707130235,-0.002356573258122671,7.148118430626852,1.5711811623276906,9.01070726522818e-05,1.5711260042051993,5.515812249123897e-05,6896488.385986681,4119669.0920680375
1.6891164733861466,-0.0016884649993327927,6.7705460657350045,-0.0026525884102499074,7.6002107010096545,1.5711850150407707,3.8775373630734235e-05,1.5711453418955164,3.9673145254326414e-05,6893621.4406957505,4116802.1467771064
1.788476265938273,-0.001981996139277304,7.570680155041066,-0.0029542245651380406,8.05289613387924,1.571183766671842,-1.2564125756072843e-05,1.5711631792146343,2.0587457207676962e-05,6890754.507968371,4113935.214049727
1.8878360584903993,-0.002305333153527681,8.415851959631114,-0.003254203797584904,8.50617521314422,1.5711774164460248,-6.391142386771357e-05,1.5711788963466964,-1.479900671563783e-06,6887887.588551742,4111068.2946330984
1.9871958510425256,-0.002657587257179601,9.306120512195694,-0.0035452379136874683,8.960048422982837,1.5711659635885993,-0.00011526651909525623,1.571191998510195,-2.603492159569676e-05,6885020.68319385,4108201.389275207
2.086555643594652,-0.0030371445011736285,10.241544893560082,-0.0038200285472104207,9.41451624784387,1.5711494073250023,-0.00016662940986127757,1.5712020861814653,-5.2678856462984314e-05,6882153.79264346,4105334.4987248178
2.1859154361467783,-0.0034416647543607667,11.22218423271125,-0.004071267086985093,9.869579172447489,1.5711277468808245,-0.0002180000946198819,1.5712088334261243,-8.10865452998133e-05,6879286.917650104,4102467.6237314614
2.2852752286989046,-0.0038680806895526297,12.248097706824911,-0.004291634717012479,10.32523768178608,1.5711009814818069,-0.00026937857185672394,1.5712119718969402,-0.00011099041513329411,6876420.058964068,4099600.765045426
2.384635021251031,-0.004312596756741793,13.31934454129265,-0.00447380228733832,10.781492261125047,1.5710691103538377,-0.00032076484008903704,1.5712112788184394,-0.00014216846460168853,6873553.217336388,4096733.9234177456
2.4839948138031573,-0.004770688171519638,14.435984009749124,-0.004610430467007277,11.23834339600358,1.5710321327229493,-0.0003721588978656655,1.5712065678816751,-0.0001744351587258386,6870686.3935188325,4093867.09960019
2.5833546063552837,-0.0052370998794353,15.598075445594398,-0.004694169501923755,11.695791687926647,1.5709900478153154,-0.00042356074376710326,1.5711976822033307,-0.00020763438801529865,6867819.588263895,4091000.2943452527
2.68271439890741,-0.005705845546783649,16.805678207536104,-0.00471765948084518,12.15383739160054,1.5709428548572473,-0.0004749703764055373,1.571184488911264,-0.00024163405401678162,6864952.802324786,4088133.5084061427
2.7820741914595364,-0.006170206530130312,18.05885171410205,-0.004673530121382349,12.612481109081465,1.5708905530751913,-0.0005263877944248984,1.5711668748153107,-0.0002763217401193785,6862086.036455415,4085266.7425367716
2.8814339840116627,-0.006622730847010395,19.35765543217263,-0.004554400781812014,13.071723327010776,1.570833141695725,-0.0005778129965009174,1.571144743027675,-0.0003116013319499622,6859219.2914103875,4082399.997491744
2.980793776563789,-0.007055232149210557,20.70214887700836,-0.004352880487076929,13.531564532306962,1.5707706199455547,-0.0006292459813411878,1.571118010242996,-0.0003473902974413523,6856352.56794499,4079533.274026346
3.0801535691159154,-0.007458788691610796,22.092391612277464,-0.0040615678840968256,13.992005212166214,1.5707029870515117,-0.000680686747685237,1.5710866045433989,-0.0003836174918872004,6853485.866815179,4076666.572896535
3.1795133616680418,-0.007823213007042196,23.528434100099833,-0.0036677241977957657,14.452953764662832,1.5706300822139632,-0.000733745871200271,1.5710500966594367,-0.00042001444547357103,6850619.372688071,4073800.0787694277
3.278873154220168,-0.008124685895784339,25.01010302081049,-0.0030341537658100833,14.91215795296012,1.5705478498720322,-0.0008276219164583318,1.5709997952488595,-0.0004519453768272452,6847757.5828225305,4070938.2889038874
3.3782329467722945,-0.00833774745994858,26.53721736080387,-0.0021443438909402378,15.369540341906633,1.570452136720863,-0.0009632986212109567,1.5709358458585332,-0.0004837091376701519,6844900.647519479,4068081.353600835
3.477592739324421,-0.008434715345793398,28.10958837692385,-0.0009759268146010552,15.825023137956762,1.570338693758745,-0.001141739120062684,1.5708579966455412,-0.0005193028867962468,6842048.717300441,4065229.423381797
3.576952531876547,-0.008385093346078364,29.72701951463733,0.0004994173039260523,16.278527724028248,1.5702031785706492,-0.0013638835651210023,1.570765647281845,-0.0005624687111958071,6839201.944296897,4062382.650378254
3.6763123244286735,-0.008154970798383579,31.38930634915521,0.002316053020884258,16.729974890454905,1.5700411577944844,-0.0016306472870290043,1.5706578894678083,-0.0006167316733238781,6836360.481091798,4059541.187173155
3.7756721169808,-0.00770641385982796,33.096236549573995,0.0045144713674829424,17.179285066676197,1.5698481098496957,-0.001942918154618725,1.5705335410476409,-0.0006854311979451744,6833524.480950812,4056705.187032169
3.875031909532926,-0.006996849301538707,34.84758985452479,0.007141365134362584,17.626378437052395,1.5696194278639168,-0.0023015545816360357,1.5703911746662778,-0.0007717468023609175,6830694.0973587325,4053874.80344009
3.9743917020850525,-0.005978441885971761,36.643138036239655,0.010249693456562597,18.071174824292044,1.569350422875561,-0.0027073827495631957,1.5702291421786712,-0.0008787193031101204,6827869.483787518,4051050.1898688753
4.073751494637179,-0.0045974659300696726,38.48264489928604,0.013898740329772728,18.513594038366595,1.5690363271959127,-0.0031611950023293237,1.5700455953221275,-0.001009268126214824,6825050.793927559,4048231.500008916
4.173111287189305,-0.0027970606498265195,40.3659309663589,0.01812005876822481,18.954206915084352,1.5686733292803132,-0.003653368291898686,1.5698403356880508,-0.001167006407737592,6822236.885866657,4045417.591948014
4.272471079741431,-0.0005150940685646555,42.292844097729784,0.02296670033871796,19.393288591660294,1.5682580849329797,-0.0041791990167020674,1.5696120671221,-0.0013539821891204173,6819427.207609426,4042607.9136907835
4.371830872293557,0.0023179785617253625,44.26322738615698,0.02851327038352791,19.830791085775335,1.5677872024001143,-0.004739165821208054,1.5693584995992365,-0.0015712971991221902,6816621.849394379,4039802.5554757365
4.4711906648456825,0.005779558845786056,46.276919149053946,0.03483884371280945,20.266666336290328,1.567257243894008,-0.005333732010643401,1.5690773065664043,-0.0018200626723963165,6813820.901682432,4037001.607763789
4.570550457397808,0.00995535183752514,48.33375293223328,0.04202698983644088,20.700866319746737,1.5666647272879426,-0.005963343832009761,1.5687661251866096,-0.0021013978986670345,6811024.454230322,4034205.160311679
4.669910249949934,0.014939814732863202,50.43355750207771,0.05016579410351634,21.133342933891797,1.5660061278228177,-0.006628430356066714,1.5684225565856156,-0.0024164287627979064,6808232.596090441,4031413.302171798
4.76927004250206,0.020836607617677468,52.576156814514235,0.05934787838572313,21.564047764214777,1.5652778799458067,-0.0073294021485504545,1.5680441659207764,-0.002766285974969751,6805445.4167686105,4028626.1228499683
4.868629835054186,0.027759045545079845,54.76137001874679,0.06967041445633779,21.99293243377242,1.564476379100655,-0.008066651756856613,1.5676284826880247,-0.0031521035873696146,6802663.00483436,4025843.7109157187
4.967989627606312,0.03583055148673803,56.98901149584774,0.08123513278697417,22.419948954022693,1.563597983766865,-0.008840551205149197,1.5671730010926361,-0.003575017325771146,6799885.4476892,4023066.1537705576
5.067349420158438,0.04518510952011452,59.25889079290737,0.09414832492196376,22.845048673675596,1.562639017514323,-0.009651451838921597,1.5666751803151537,-0.004036162800830745,6797112.832261223,4020293.538342581
5.166709212710564,0.05596771897328191,61.57081268490431,0.10852085311581755,23.26818356413192,1.5615957709671695,-0.010499685238435374,1.566132444632613,-0.004536673665443525,6794345.244773378,4017525.950854735
5.26606900526269,0.06833484652733487,63.92457712045397,0.12446812977759489,23.689305050781208,1.560464504165443,-0.011385559215344213,1.565542184296736,-0.005077680131293061,6791582.77028017,4014763.476361527
5.365428797814816,0.08245487935605916,66.3199792837876,0.14211012791030755,24.10836518279726,1.5592414486590334,-0.012309360506846497,1.564901755308578,-0.005660306649544644,6788825.492435983,4012006.1985173402
5.4647885903669415,0.09850857530063392,68.75680955216392,0.16157135127020975,24.525315580725472,1.5579228098720792,-0.013271352053823609,1.564208480316519,-0.006285670444439839,6786073.494189676,4009254.2002710323
5.564148382919067,0.11668951152250642,71.23485352306317,0.18298081905046654,24.9401081388049,1.5565047694900318,-0.014271772772707745,1.5634596490657056,-0.006954879575673756,6783326.856626635,4006507.562707992
5.663508175471193,0.13720453198995777,73.75389201818493,0.20647205414291434,25.352694791509624,1.5549834878268796,-0.015310837755162525,1.5626525183634632,-0.007669030536583632,6780585.659431837,4003766.365513193
5.762867968023319,0.1602741908782805,76.31370108748943,0.23218304201088075,25.763027513987403,1.5533551063850932,-0.016388736328450906,1.5617843131190483,-0.008429206733955086,6777849.980426647,4001030.6865080036
5.862227760575445,0.18613319369043915,78.91405201329276,0.2602562077471376,26.171058322601937,1.551615750317834,-0.017505633039104507,1.5608522264840545,-0.009236476166220475,6775119.896031883,3998300.60211324
5.961587553127571,0.21503083444833235,81.55471132606476,0.29083837652673117,26.576739392714227,1.5497615309988984,-0.018661666568626507,1.5598534205523427,-0.010091889553444311,6772395.480109992,3995576.1861913498
6.060947345679697,0.24723142839470064,84.23544078533011,0.324080728424178,26.98002270746472,1.547788548707553,-0.019856948577166817,1.5587850269304486,-0.010996478222895734,6769676.805122791,3992857.511204148
6.160307138231823,0.28301474091940204,86.95599740724585,0.3601387604138636,27.38086052754666,1.5456928952014273,-0.02109156483017115,1.557644147219245,-0.01195125201781777,6766963.94097369,3990144.6470550476
6.259666930783949,0.322676411055773,89.71613344560366,0.3991722317210316,27.77920492245181,1.5434706564681155,-0.022365573399782856,1.5564278536023524,-0.01295719713423682,6764256.95500772,3987437.661089078
6.359026723336075,0.3665283706249113,92.51559639622019,0.44134512002058207,28.17500800585777,1.5411179153718984,-0.023679005720375765,1.5551331892002227,-0.014015273828324348,6761555.912474627,3984736.618555985
6.458386515888201,0.41489925554526363,95.3541290013928,0.4868255425853065,28.56822193628742,1.5386307543657336,-0.02503186593168297,1.55375716947744,-0.015126415111706315,6758860.875602753,3982041.5816841116
6.5577463084403265,0.4681348136684557,98.23146923107036,0.5357857213244842,28.958798682757408,1.536005258261447,-0.02642413029303925,1.5522967818177553,-0.016291523556308363,6756171.903830639,3979352.609911998
