time,x,y,vx,vy,theta,theta_dot,gamma,alpha,mass,mass_propellant
0.09935979255212624,-8.54883832252647e-05,0.04568939314905645,-0.0008603921267288848,0.4598378476392937,1.5707993485714309,3.04124682288933e-05,1.572667401842526,-0.0018680532710950715,6939448.545630939,4162629.2517122948
0.19871958510425247,-0.0002480512871627342,0.13714017444155405,-0.0016361034958097922,0.9204002840939971,1.570805465279986,6.156120497081071e-05,1.5725739248691266,-0.0017684595891405142,6936546.512056094,4159727.2181374496
0.2980793776563787,-0.00044843199459265905,0.2744548153391255,-0.002016718254768909,1.3819940377344624,1.5708144801712178,9.07297710700272e-05,1.5722556072028941,-0.0014411270316763147,6933643.609000237,4156824.3150815926
0.39743917020850494,-0.0005822670521867564,0.45778755849195546,-0.0013469740038344444,1.8451401562322076,1.5708251668191087,0.00010755505437811599,1.571526338420306,-0.0007011716011973146,6930738.785988903,4153919.492070259
0.4967989627606312,-0.0005113040951745027,0.6873251097715276,0.0007142019441619208,2.31016536351112,1.57083599902467,0.00010902000983601782,1.5704871706051757,0.0003488284194943514,6927831.385208423,4151012.09128978
0.5961587553127574,-0.0002208466067878929,0.9631215037720506,0.0029232900041959095,2.775734398356703,1.5708459752618924,0.00010040517362302545,1.56974316806143,0.0011028072004624079,6924924.1094580395,4148104.815539396
0.6955185478648837,0.0002941321462882627,1.2852344558833022,0.005182969286152514,3.2418843058902755,1.5708547011811886,8.782143231297566e-05,1.5691975760742622,0.0016571251069263937,6922016.885620639,4145197.5917019956
0.7948783404170099,0.0010361832349464234,1.6537226985133073,0.0074683236508255105,3.708625321824101,1.5708619470163223,7.292522405211548e-05,1.568782558105045,0.0020793889112773467,6919109.695250504,4142290.4013318606
0.8942381329691361,0.0020092071229600114,2.0686446015713944,0.009792933972795074,4.1759537978142465,1.5708674126306905,5.50083109859532e-05,1.5684512539096869,0.0024161587210036473,6916202.547237938,4139383.2533192947
0.9935979255212624,0.003212517565076643,2.530060375780824,0.012110637625228026,4.643888260609655,1.5708710977497582,3.70886348798039e-05,1.5681884668527457,0.0026826308970124835,6913295.406228484,4136476.1123098405
1.0929577180733885,0.004645683012633145,3.0380302935164876,0.014423997984945803,5.112429330699056,1.5708730020991477,1.9166197318578068e-05,1.5679749753824628,0.0028980267166849316,6910388.2730065035,4133568.979087861
1.1923175106255148,0.006308526957249242,3.592614665998733,0.016735581887852014,5.581577399039944,1.5708731254046389,1.2409998849740206e-06,1.5677979751570401,0.0030751502475987458,6907481.148357261,4130661.8544386188
1.2916773031776412,0.008201128297412201,4.193873854750258,0.019047959859316944,6.051332971896982,1.5708714673921682,-1.6686955840517886e-05,1.5676486076001657,0.0032228597920025415,6904574.033066909,4127754.7391482666
1.3910370957297675,0.010323821683317937,4.841868271633634,0.02136370589534118,6.521696555912434,1.5708680277878293,-3.461766827961516e-05,1.5675205488901534,0.0033474788976759484,6901666.927922476,4124847.634003834
1.4903968882818939,0.01267719790697386,5.536658378888852,0.023685397918089372,6.99266865810652,1.5708628063178722,-5.255113585624892e-05,1.567409163968196,0.003453642349676267,6898759.83371186,4121940.5397932176
1.5897566808340202,0.01526210424821866,6.278304677722637,0.02601561733221919,7.4642496706572885,1.5708558027087034,-7.048735699657219e-05,1.5673109782150532,0.0035448244936502338,6895852.751223811,4119033.4573051687
1.6891164733861466,0.018079644843673724,7.066867731237805,0.02835694925567526,7.936440216513852,1.5708470166868855,-8.842633012897401e-05,1.567223335905883,0.003623680781002614,6892945.681247925,4116126.3873292827
1.788476265938273,0.02113118103391649,7.902408153027454,0.03071198230050516,8.40924080383227,1.5708364479791372,-0.00010636805368409124,1.567144172400823,0.003692275578314197,6890038.62457463,4113219.3306559874
1.8878360584903993,0.024418331755994033,8.784986607212646,0.033083309029183355,8.882651941147857,1.5708240963123328,-0.00012431252609482784,1.5670718584407706,0.003752237871562203,6887131.581995172,4110312.2880765307
1.9871958510425256,0.027942973891781415,9.714663808480118,0.03547352551021361,9.356674137375483,1.5708099614135018,-0.00014225974579637414,1.567005091252219,0.003804870161282725,6884224.554301612,4107405.260382971
2.086555643594652,0.031707242639312516,10.691500510647572,0.03788523154933405,9.831307786346116,1.5707940430098295,-0.0001602097112262297,1.5669428166773847,0.003851226332444835,6881317.542286805,4104498.2483681636
2.1859154361467783,0.035713531884714815,11.71555752964151,0.04032103069559566,10.306553513149652,1.570776340828656,-0.00017816242082423052,1.5668841727523095,0.003892168076346403,6878410.546744392,4101591.252825751
2.2852752286989046,0.03996449455232284,12.78689573206741,0.04278353002174276,10.782411827841269,1.5707568545974757,-0.00019611787303257177,1.566828447791967,0.003928406805508766,6875503.568468791,4098684.27455015
2.384635021251031,0.04446304300023039,13.905576023760545,0.04527534058152868,11.258883125246584,1.570735584043938,-0.00021407606629584043,1.56677504901509,0.003960535028848078,6872596.608255181,4095777.31433654
2.4839948138031573,0.04921234934915196,15.071659372792984,0.04779907673851049,11.7359680317437,1.570712528895847,-0.00023203699906104917,1.5667234789215494,0.003989049974297609,6869689.666899494,4092870.3729808526
2.5833546063552837,0.054215845901633516,16.285206786532573,0.05035735707536442,12.213666942822343,1.57068768888116,-0.00025000066977766774,1.56667331673038,0.004014372150780154,6866782.745198399,4089963.4512797575
2.68271439890741,0.0594772254496271,17.546279334669425,0.05295280327033046,12.691980485720782,1.5706610637279887,-0.0002679670768976636,1.5666242043994438,0.004036859328544917,6863875.843949295,4087056.5500306534
2.7820741914595364,0.0649289759398955,18.85494302800956,0.05486877891183484,13.170958389970313,1.5706328585723266,-0.0002838689065029915,1.5666304597500613,0.004002398822265274,6860968.867591626,4084149.5736729843
2.8814339840116627,0.07051532264558319,20.21126312685586,0.05622341353779482,13.650593102182112,1.570603245373479,-0.00029804006315755163,1.566677597653003,0.0039256477204761,6858061.832213311,4081242.53829467
2.980793776563789,0.07625606893533256,21.615299798203274,0.057777357845605906,14.130833361098501,1.570572179489023,-0.0003126605204995029,1.5667076057406037,0.003864573748419309,6855154.840763191,4078335.54684455
3.0801535691159154,0.0821733831694166,23.067113109106497,0.05955441413567451,14.611678160877519,1.5705396101222606,-0.00032779221781747834,1.5667205400367832,0.0038190700854774384,6852247.896820805,4075428.6029021638
3.1795133616680418,0.08829048088911515,24.566763107249763,0.06156512169134608,15.093127306566375,1.5705054841326413,-0.00034345874465592453,1.566717332495284,0.00378815163735724,6849341.002113262,4072521.708194621
3.278873154220168,0.09463163316309267,26.114309844007337,0.06382010379752774,15.575180835303145,1.5704697460360373,-0.0003596836877976241,1.5666987983425675,0.0037709476934697506,6846434.158599883,4069614.864681242
3.3782329467722945,0.10122218106495297,27.709813362933502,0.06633012944751027,16.057838668384196,1.5704323379892393,-0.0003764907900573195,1.5666656493379643,0.003766688651275052,6843527.3682405595,4066708.074321918
3.477592739324421,0.10808854517131529,29.353333711317102,0.06910606322733698,16.541100843395743,1.5703931997896756,-0.0003939037970839639,1.5666185116773388,0.0037746881123368325,6840620.632532501,4063801.3386138594
3.576952531876547,0.11525644553327617,31.044931032587144,0.07214085474464378,17.024968327933987,1.5703522740078293,-0.0004118947996490608,1.566558995976289,0.0037932780315403924,6837713.951352161,4060894.65743352
3.6763123244286735,0.12273194234405485,32.784666894756896,0.07523663867209537,17.509455459632218,1.5703095603732475,-0.00042988852416714747,1.566499438418935,0.0038101219543125175,6834807.2986358935,4057988.0047172518
3.7756721169808,0.1305213601857791,34.572602917078015,0.07839607593421394,17.994562754175718,1.5702650586156282,-0.00044788496912393975,1.5664397007954909,0.003825357820137265,6831900.675188305,4055081.3812696636
3.875031909532926,0.13863128843398156,36.40880077007835,0.08162183152654857,18.480290727630358,1.570218768464819,-0.00046588413300869614,1.56637965922198,0.003839109242838923,6828994.081814587,4052174.7878959463
3.9743917020850525,0.1470685815949879,38.293322164034535,0.08491657384026802,18.96663978004508,1.5701706896508179,-0.0004838860143142943,1.566319202356929,0.0038514872938888445,6826087.519320502,4049268.2254018607
4.073751494637179,0.15584035973423901,40.22622887213538,0.08828297557736191,19.453610544595275,1.5701208219037717,-0.0005018906115373186,1.5662582299037597,0.003862592000011933,6823180.988512366,4046361.6945937253
4.173111287189305,0.1649540087922721,42.20758270738426,0.09172371261999031,19.94120342199205,1.5700691649539764,-0.000519897923178133,1.5661966512481709,0.003872513705805547,6820274.490197044,4043455.1962784026
4.272471079741431,0.1744171810142933,44.23744554578223,0.09524146517371825,20.429419046271256,1.5700157185318768,-0.0005379079477409805,1.5661343843787352,0.0038813341531416246,6817368.02518193,4040548.7312632888
4.371830872293557,0.1842377953351951,46.31587930321069,0.09883891731909264,20.918257818806037,1.5699604823680655,-0.0005559206837340628,1.5660713548284932,0.003889127539572268,6814461.59427494,4037642.3003562987
4.4711906648456825,0.1944240376972867,48.44294594704433,0.10251875633443648,21.40772025784706,1.5699034561932834,-0.0005739361296696406,1.5660074949429308,0.003895961250352631,6811555.198284497,4034735.9043658553
4.570550457397808,0.20498436152705501,50.618707496188904,0.10628367429640252,21.897806882025517,1.5698446397384185,-0.0005919542840641325,1.565942743041825,0.0039018966965935764,6808648.838019516,4031829.544100875
4.669910249949934,0.2159274879861458,52.84322602111909,0.11013636580762583,22.38851821035311,1.5697840327345058,-0.000609975145438207,1.5658770428850923,0.003906989849413511,6805742.514289399,4028923.2203707574
4.76927004250206,0.22726240644939294,55.11656364391624,0.11407953028183497,22.879854762221935,1.569721634912727,-0.0006279987123168971,1.5658103430058612,0.003911291906865788,6802836.2279040115,4026016.9339853697
4.868629835054186,0.23899837489292713,57.43878253830619,0.11811587103885357,23.37181705740446,1.5696574460044097,-0.0006460249832297003,1.5657425962621065,0.003914849742303161,6799929.979673678,4023110.685755037
4.967989627606312,0.2511449201921717,59.80994492969705,0.12224809439766335,23.864405616053425,1.5695914657410275,-0.0006640539567106876,1.5656737594420416,0.003917706298985912,6797023.770409168,4020204.476490526
5.067349420158438,0.2637118386018674,62.23011309521698,0.12647891150842366,24.35762095870171,1.5695236938541988,-0.0006820856312986259,1.5656037928033615,0.003919901050837282,6794117.600921678,4017298.307003036
5.166709212710564,0.2767091961006546,64.6993493521273,0.13081103698931845,24.851463489267164,1.569454130075687,-0.000700120005537087,1.5655326597697437,0.003921470305943364,6791211.472022826,4014392.1781041836
5.26606900526269,0.29014732873620686,67.21771608110457,0.135247188932106,25.34593384598792,1.5693827741373996,-0.0007181570779745771,1.5654603267041107,0.003922447433288845,6788305.384524631,4011486.090605989
5.365428797814816,0.30403684306181156,69.7852756913895,0.13979008982247976,25.841032316346016,1.5693096257713877,-0.0007361968471646563,1.5653867624813893,0.003922863289998357,6785399.339239508,4008580.0453208657
5.4647885903669415,0.3183886164827248,72.402090667353,0.14444246563200108,26.33675965648437,1.569234684709846,-0.0007542393116660765,1.565311938460565,0.003922746249281017,6782493.336980247,4005674.0430616047
5.564148382919067,0.33321379769405285,75.06822353363012,0.1492070467392576,26.833116271638886,1.5691579506851112,-0.000772284470042899,1.5652358280648642,0.003922122620247048,6779587.378560006,4002768.0846413635
5.663508175471193,0.3485238069828257,77.78373685514282,0.1540865665630379,27.330102567274277,1.5690794234296628,-0.0007903323208646398,1.5651584067185111,0.003921016711151637,6776681.464792294,3999862.170873652
5.762867968023319,0.36433033671264975,80.54869326043168,0.15908376339988436,27.827719183675814,1.5689991026761216,-0.0008083828627064182,1.5650796516562062,0.003919451019915421,6773775.596490962,3996956.3025723197
5.862227760575445,0.3806453516725152,83.36315543004892,0.16420137905688764,28.325966644311578,1.5689169881572493,-0.0008264360941490817,1.564999541749201,0.003917446408048253,6770869.774470185,3994050.4805515422
5.961587553127571,0.39748108942615984,86.22718608493156,0.16944215885728905,28.82484535563131,1.5688330796059482,-0.0008444920137793625,1.5649180573670955,0.00391502223885265,6767963.99954445,3991144.705625808
6.060947345679697,0.41485006075315894,89.14084800976302,0.17480885256364614,29.32435595920639,1.5687473767552604,-0.0008625506201900379,1.564835180293488,0.0039121964617725435,6765058.272528547,3988238.978609905
6.160307138231823,0.4327650499995214,92.10420402967655,0.180304213467071,29.824498862141745,1.5686598793383673,-0.0008806119119800722,1.5647508935504593,0.0039089857879079926,6762152.594237551,3985333.300318909
6.259666930783949,0.4512391155200918,95.11731702195735,0.18593099931120052,30.3252745893169,1.5685705870885884,-0.0008986758877547894,1.5646651813378694,0.003905405750719071,6759246.96548681,3982427.6715681674
6.359026723336075,0.4702855899847399,98.18024990439541,0.1916919709212947,30.826683548389944,1.5684794997393816,-0.0009167425461260278,1.56457802894,0.0039014707993816344,6756341.387091931,3979522.0931732887
6.458386515888201,0.4899180809133443,101.29306564699759,0.1975898945069232,31.328726264893653,1.568386617024342,-0.0009348118857123213,1.5644894226142974,0.0038971944100445466,6753435.8598687695,3976616.565950127
6.5577463084403265,0.5101504708918765,104.45582727202496,0.20362753845241552,31.831403264737293,1.568291938677201,-0.0009528839051390523,1.5643993495965531,0.0038925890806478236,6750530.384633412,3973711.090714769
6.657106100992452,0.530996918063021,107.6685978540302,0.20980767607991974,32.334715074206166,1.5681954644318263,-0.0009709586030386476,1.5643077979422777,0.0038876664895486357,6747624.962202163,3970805.6682835207
6.756465893544578,0.5524718564804303,110.93144051989489,0.2161330842769537,32.838662219961286,1.5680971940222206,-0.000989035978050749,1.5642147565083304,0.003882437513890169,6744719.593391538,3967900.299472895
6.855825686096704,0.5745899966007657,114.24441844886688,0.22260654488315065,33.34324522903898,1.5679971271825208,-0.001007116028822403,1.5641202148532403,0.0038769123292805574,6741814.279018238,3964994.9850995955
6.95518547864883,0.5973663255477343,117.60759487259745,0.2292308423955252,33.84846462885053,1.5678952636469978,-0.0010251987540082397,1.5640241632549905,0.0038711003920073317,6738909.0198991485,3962089.725980506
7.054545271200956,0.6208161075138745,121.02103306345875,0.2360087653548383,34.35432082922813,1.5677916031500554,-0.0010432841522706828,1.5639265925963102,0.0038650105537452184,6736003.816851317,3959184.522932674
7.153905063753082,0.6449548842545872,124.48479634629068,0.24294310727399163,34.8608143582302,1.567686145426229,-0.0010613722222801518,1.563827494341612,0.0038586510846170263,6733098.670691943,3956279.376773299
7.253264856305208,0.6697984754455092,127.99894809843806,0.25003666526264634,35.36794574428869,1.567578890210186,-0.0010794629627152493,1.5637268605141508,0.003852029696035153,6730193.582238363,3953374.2883197195
7.352624648857334,0.6953629790404529,131.56355173805264,0.25729224003292883,35.87571539810226,1.5674698372367235,-0.0010975563722629748,1.563624683634484,0.0038451536022394706,6727288.55230804,3950469.2583893957
7.45198444140946,0.7216647717216339,135.17867073585498,0.26471263682824836,36.384123848746796,1.567358986240769,-0.001115652449618945,1.5635209567073884,0.003838029533380638,6724383.581718544,3947564.287799899
7.5513442339615855,0.748720509258866,138.84436862691672,0.2723006645071056,36.89317174387848,1.5672463369573784,-0.001133751193487602,1.5634156732165125,0.003830663740865825,6721478.671287542,3944659.377368897
7.650704026513711,0.776547126961123,142.56070897546178,0.2800591364727196,37.40285937689939,1.5671318891217352,-0.0011518526025824378,1.563308826975386,0.0038230621463490877,6718573.821832785,3941754.5279141404
7.750063819065837,0.8051618400369918,146.3277553983836,0.28799086975606225,37.91318727789779,1.56701564246915,-0.0011699566756262238,1.563200412244127,0.0038152302250229475,6715669.034172092,3938849.740253447
7.849423611617963,0.8345821438638168,150.14557156528187,0.29609868409689505,38.42415597733212,1.5668975967350594,-0.001188063411351242,1.563090423680841,0.0038071730542184046,6712764.3091233345,3935945.0152046904
7.948783404170089,0.864825814624929,154.01422119849917,0.3043854056483232,38.935766006030335,1.5667777516550248,-0.0012061728084995405,1.5629788562215314,0.003798895433493321,6709859.647504428,3933040.3535857843
8.048143196722215,0.8959109094881343,157.93376807315775,0.31285386235984197,39.44801789518945,1.5666561069647318,-0.0012242848658231434,1.5628657051802075,0.0037904017845242777,6706955.050133313,3930135.756214669
8.147502989274342,0.9278557672444449,161.9042760054204,0.3215068886094095,39.96091205785925,1.5665326623999891,-0.0012423995820843305,1.5627509660859198,0.003781696314069327,6704050.517827942,3927231.223909298
8.246862781826469,0.960679008579711,165.92580886429252,0.33034732150881246,40.47444902587064,1.5664074176967269,-0.0012605169560558577,1.5626346348074591,0.003772782889267745,6701146.051406267,3924326.7574876226
8.346222574378595,0.9943995363466691,169.99843057165856,0.33937800090783804,40.98862933142153,1.5662803725909966,-0.0012786369865212313,1.5625167075106319,0.003763665080364742,6698241.651686224,3921422.3577675796
8.445582366930722,1.029036536205872,174.12220509052744,0.34860177310687973,41.5034533884063,1.5661515268189694,-0.0012967596722749917,1.5623971805272623,0.0037543462917071224,6695337.31948572,3918518.0255670757
8.544942159482849,1.0646094768990462,178.29719643684973,0.3580214871575135,42.01892172965227,1.566020880116935,-0.0013148850121229478,1.5622760504802689,0.003744829636666225,6692433.055622619,3915613.761703974
8.644301952034976,1.1011381107994562,182.52346866775255,0.3676399976504218,42.53503476957882,1.5658884322213007,-0.0013330130048824695,1.562153314154703,0.0037351180665976536,6689528.860914724,3912709.56699608
8.743661744587103,1.1386424740019805,186.8010859051733,0.37746016008284855,43.05179316046384,1.56575418286859,-0.0013511436493827455,1.5620289686671947,0.003725214201395266,6686624.73617977,3909805.4422611254
8.84302153713923,1.1771428869669467,191.13011231228793,0.3874848364318793,43.569197317350806,1.5656181317954414,-0.0013692769444651161,1.5619030112254895,0.003715120569951935,6683720.682235402,3906901.388316758
8.942381329691356,1.216659954888075,195.51061209353176,0.3977168923777367,44.08724765549135,1.565480278738608,-0.0013874128889833294,1.5617754392319207,0.0037048395066872075,6680816.699899167,3903997.4059805227
9.041741122243483,1.2572145682457148,199.94264950644174,0.40815919916865756,44.60594470932342,1.5653406234349545,-0.001405551481803843,1.5616462502552926,0.003694373179661925,6677912.7899884945,3901093.496069851
9.14110091479561,1.2988279028989937,204.42628884986544,0.41881462898030775,45.12528889461481,1.5651991656214579,-0.0014236927218061017,1.5615154420774986,0.003683723543959294,6675008.953320687,3898189.6594020436
9.240460707347737,1.341521420640255,208.9615944758134,0.42968605956844586,45.64528074642105,1.5650559050352046,-0.0014418366078828972,1.5613830126273858,0.003672892407818873,6672105.190712902,3895285.896794258
