time,x,y,vx,vy,theta,theta_dot,gamma,alpha,mass,mass_propellant
0.1,-0.0004238988631007544,0.06327296433718234,-0.004238988631007544,0.6327296433718234,1.5707883823046183,-7.944490278231962e-05,1.577495752460656,-0.00670737015603784,6939086.030631975,4178700.5499998317
0.2,-0.0011541122773623615,0.18983929750154582,-0.007302134142616072,1.2656633316436348,1.570774675024701,-0.00013707279917258154,1.5765656755164392,-0.005791000491738307,6935822.862599905,4175437.3819677606
0.30000000000000004,-0.002199979139771803,0.37978072669622787,-0.010458668624094418,1.8994142919468204,1.5707549906166889,-0.00019684408012008258,1.5763025309821168,-0.005547540365427928,6932559.579095277,4172174.098463133
0.4,-0.0035581555931007477,0.6331735030987838,-0.013581764533289445,2.5339277640255595,1.570729334224282,-0.0002565639240678386,1.5761562406266252,-0.005426906402343112,6929296.294005961,4168910.8133738167
0.5,-0.005222212679589597,0.9500930037568178,-0.016640570864888488,3.169195006580339,1.570697750610702,-0.0003158361358011965,1.5760470033564224,-0.005349252745720401,6926033.02770071,4165647.5470685656
0.6,-0.007184027686983891,1.3306143803655368,-0.01961815007394294,3.805213766087189,1.5706602981969866,-0.00037452413715370386,1.575951878483882,-0.005291580286895359,6922769.787360117,4162384.306727972
0.7,-0.009434194385591031,1.7748127597916719,-0.022501666986071398,4.44198379426135,1.5706170415269238,-0.0004325667006287502,1.5758619631318678,-0.005244921604943942,6919506.576090413,4159121.095458268
0.7999999999999999,-0.01196218619624582,2.2827633107860876,-0.025279918106547877,5.079505509944157,1.5705680483804296,-0.0004899314649411119,1.5757731319860198,-0.005205083605590133,6916243.39564118,4155857.915009035
0.8999999999999999,-0.014756439917974628,2.8545412822056755,-0.02794253721728808,5.7177797141958795,1.5705133883856779,-0.0005465999475183614,1.575683243775404,-0.005169855389726141,6912980.246985766,4152594.766353621
0.9999999999999999,-0.017804404715445657,3.4902220221116362,-0.030479647974710276,6.356807399059609,1.5704531322880955,-0.0006025609758233357,1.5755910944333222,-0.005137962145226771,6909717.130709538,4149331.6500773937
1.0999999999999999,-0.021092575525875137,4.18988099698862,-0.03288170810429479,6.996589748769844,1.5703873515149998,-0.0006578077309569348,1.5754959686493644,-0.0051086171343646125,6906454.047008744,4146068.5663766
1.2,-0.024606516426430372,4.953593781931594,-0.03513940900555236,7.637127849429735,1.5703161179308018,-0.0007123358419799188,1.5753974231402594,-0.005081305209457598,6903190.996275923,4142805.5156437783
1.3,-0.02833087878282098,5.781436070249498,-0.037243623563906064,8.278422883179037,1.5702395036914811,-0.0007661423932068153,1.575295175527715,-0.005055671836233788,6899927.978708777,4139542.498076632
1.4000000000000001,-0.03224942121563593,6.673483683076421,-0.03918542432814956,8.92047612826923,1.5701575810665196,-0.0008192262496157723,1.5751890488563238,-0.005031467789804234,6896664.994310255,4136279.51367811
1.5000000000000002,-0.03634502269172281,7.629812569307262,-0.04095601476086878,9.563288862308402,1.5700704223900357,-0.0008715867648398732,1.575078929251346,-0.00500850686131038,6893402.043083478,4133016.5624513333
1.6000000000000003,-0.04059969527955459,8.65049879580031,-0.042546725878317815,10.206862264930477,1.569978100018912,-0.0009232237112373405,1.5749647458787501,-0.004986645859838212,6890139.1252270825,4129753.644594938
1.7000000000000004,-0.044994598787334084,9.73561856673177,-0.04394903507779488,10.851197709314599,1.56988068625592,-0.0009741376299179603,1.5748464598721574,-0.004965773616237401,6886876.2405491965,4126490.7599170525
1.8000000000000005,-0.049510053725444654,10.885248213791705,-0.045154549381105705,11.496296470599358,1.5697782533047053,-0.0010243295121463345,1.5747240540674121,-0.004945800762706787,6883613.389053455,4123227.9084213106
1.9000000000000006,-0.05412555237409009,12.099464196096006,-0.04615498648645438,12.142159823043013,1.5696708732600435,-0.0010738004466181344,1.5745975256639078,-0.004926652403864251,6880350.570743505,4119965.090111361
2.0000000000000004,-0.058819772185869985,13.378343109827554,-0.04694219811779891,12.788789137315483,1.5695586180544474,-0.0011225520559603607,1.5744668844056509,-0.00490826635120345,6877087.785427764,4116702.30479562
2.1000000000000005,-0.06357058537024278,14.72196166866059,-0.04750813184372791,13.43618558833035,1.5694415594763442,-0.0011705857810318436,1.574332146804873,-0.0048905873285287615,6873825.033305323,4113439.5526731787
2.2000000000000006,-0.06835507209924041,16.130396732888688,-0.04784486728997637,14.084350642280974,1.5693197691196987,-0.0012179035664556597,1.5741933370275216,-0.0048735679078228955,6870562.3139892705,4110176.8333571265
2.3000000000000007,-0.0731495310193475,17.60372528007627,-0.04794458920107087,14.733285471875819,1.5691933183849027,-0.0012645073479608906,1.5740504835174747,-0.00485716513257195,6867299.627678793,4106914.147046649
2.400000000000001,-0.07792949084614784,19.142024424446863,-0.04779959826800333,15.38299144370593,1.569062278458101,-0.0013103992680184148,1.573903618676557,-0.004841340218455947,6864036.974182355,4103651.4935502107
2.500000000000001,-0.0826697225210123,20.745371416777402,-0.04740231674864464,16.033469923305397,1.568926720280237,-0.0013555817786397699,1.5737527784467835,-0.004826058166546465,6860774.353308477,4100388.8726763334
2.600000000000001,-0.08734424826701473,22.41384363452365,-0.04674525746002424,16.684722177462486,1.5687867145736796,-0.0014000570655758678,1.573597999765882,-0.004811285192202419,6857511.76506095,4097126.284428806
2.700000000000001,-0.09192635490356077,24.147518591463424,-0.04582106636546036,17.33674956939773,1.5686423317887712,-0.0014438278490842013,1.5734393227895462,-0.004796991000775019,6854249.209248299,4093863.728616155
2.800000000000001,-0.09638860234787101,25.9464739278067,-0.0446224744431024,17.98955336343276,1.568493642139999,-0.0014868964877207058,1.5732767876504588,-0.004783145510459663,6850986.685874294,4090601.2052421495
2.9000000000000012,-0.10070283632737967,27.810787419844896,-0.043142339795086596,18.64313492038195,1.5683407155628655,-0.0015292657713353074,1.5731104366787076,-0.004769721115842174,6847724.194747406,4087338.714115262
3.0000000000000013,-0.10484019965250128,29.740536979833735,-0.0413736332512161,19.297495599888393,1.5681836216973561,-0.0015709386550924011,1.5729403132849196,-0.004756691587563422,6844461.7356761135,4084076.2550439695
3.1000000000000014,-0.10877114220380252,31.73580063628386,-0.03930942551301227,19.95263656450125,1.5680224298956635,-0.0016119180169252133,1.5727664611441594,-0.004744031248495872,6841199.308859584,4080813.8282274404
3.2000000000000015,-0.11246543165575355,33.79665656320701,-0.0369428945195104,20.60855926923151,1.567857209213426,-0.0016522068223759428,1.5725889244464857,-0.004731715233059708,6837936.913910842,4077551.433278698
3.3000000000000016,-0.11589216302782908,35.92318307021024,-0.03426731372075527,21.265265070032317,1.5676880284239292,-0.0016918078949684694,1.5724077472943603,-0.0047197188704311,6834674.550638212,4074289.0700060683
3.4000000000000017,-0.11901977199512515,38.115458592563755,-0.0312760896729606,21.922755223535123,1.5675149559622457,-0.0017307246168344517,1.5722229754134227,-0.004708019451177048,6831412.21904549,4071026.7384133465
3.5000000000000018,-0.12181604292822541,40.37356170087933,-0.0279627093310027,22.581031083155708,1.5673380599653022,-0.001768959969435508,1.5720346535539742,-0.004696593588672027,6828149.918940958,4067764.438308814
3.600000000000002,-0.12424812108265097,42.69757109117076,-0.024320781544255637,23.240093902914268,1.567157408235639,-0.0018065172966326047,1.5718428274143625,-0.00468541917872356,6824887.650328315,4064502.1696961713
3.700000000000002,-0.12628252263784542,45.08756560436766,-0.020344015551944563,23.899945131969,1.5669730682424856,-0.0018433999315341362,1.5716475425833039,-0.0046744743408182465,6821625.412820465,4061239.932188322
3.800000000000002,-0.12788514649254773,47.54362420655943,-0.01602623854702304,24.560586021917707,1.5667851070921832,-0.0018796115030246857,1.5714488452754478,-0.0046637381832645985,6818363.206421085,4057977.725788941
3.900000000000002,-0.12902128124059092,50.06582598886003,-0.011361347480431914,25.222017823005945,1.5665935915858182,-0.0019151550636496116,1.5712467803149806,-0.004653188729162316,6815101.031133676,4054715.5505015324
4.000000000000002,-0.12965561844443454,52.65425018695772,-0.006343372038436216,25.884241980976885,1.5663985881582452,-0.0019500342757303012,1.5710413937323835,-0.00464280557413832,6811838.886571082,4051453.4059389387
4.100000000000001,-0.1297522628905036,55.30897616133633,-0.0009664444606904757,26.547259743786153,1.5662001628751065,-0.0019842528313855556,1.5708327314735562,-0.004632568598449627,6808576.772736856,4048191.2921047127
4.200000000000001,-0.1292747419676707,58.0300834168474,0.00477520922832898,27.211072555110622,1.5659983814422118,-0.002017814328946864,1.5706208390713003,-0.004622457629088528,6805314.689243733,4044929.20861159
4.300000000000001,-0.12818601465599846,60.81765158291516,0.010887273116722287,27.87568166067765,1.5657933092245389,-0.002050722176730354,1.570405761545384,-0.004612452320845062,6802052.636095115,4041667.1554629724
4.4,-0.1264484848185416,63.67176041342303,0.017375298374568564,28.541088305078702,1.5655850111835548,-0.002082980409840461,1.5701875449558047,-0.00460253377224995,6798790.613294485,4038405.132662343
4.5,-0.12402400778984934,66.59248980631925,0.02424477028692254,29.20729392896221,1.5653735519355312,-0.002114592480236572,1.5699662339839282,-0.004592682048397023,6795528.620454412,4035143.1398222703
4.6,-0.1208739038808017,69.57991979368317,0.03150103909047644,29.874299873639256,1.5651589956841345,-0.0021455625139665813,1.5697418743876872,-0.004582878703552673,6792266.657382924,4031881.176750783
4.699999999999999,-0.11695896607840715,72.63413053175839,0.039149378023945414,30.542107380752128,1.5649414062593856,-0.00217589424749025,1.5695145109694724,-0.004573104710086762,6789004.724083303,4028619.2434511613
4.799999999999999,-0.11223946973246247,75.75520231072784,0.047194963459446806,31.21071778969455,1.564720847117163,-0.0022055914222269073,1.5692841883107376,-0.004563341193574599,6785742.820363407,4025357.339731266
4.899999999999999,-0.10667518450823607,78.94321556452607,0.055642852242264035,31.88013253798225,1.564497381295987,-0.0022346582117596593,1.5690509514996809,-0.004553570203693846,6782480.945835753,4022095.465203612
4.999999999999998,-0.10022538218098863,82.19825085100167,0.06449802327247439,32.55035286475602,1.564271071452792,-0.002263098431948753,1.5688148447775374,-0.004543773324745315,6779219.100503495,4018833.6198713537
5.099999999999998,-0.09284888142361053,85.52038889154524,0.07376500757378106,33.22138040543559,1.5640419792098659,-0.0022909224292630035,1.5685759227825333,-0.004533943572667454,6775957.283589349,4015571.802957208
5.1999999999999975,-0.08450452620111698,88.90971104826521,0.08344355222493556,33.89322156719975,1.5638101564639657,-0.0023182274590023305,1.5683343777744925,-0.004524221310526766,6772695.484952376,4012310.004320235
5.299999999999997,-0.0751517650897675,92.36629937743582,0.09352761111349481,34.56588329170608,1.5635756348680072,-0.002345215959585907,1.5680905552663833,-0.004514920398376088,6769433.693491127,4009048.2128589866
5.399999999999997,-0.06475183776080928,95.89023724138166,0.10399927328958208,35.23937863945835,1.563338404023953,-0.0023723084405420777,1.5678451121205292,-0.004506708096576162,6766171.886220992,4005786.405588851
5.4999999999999964,-0.05326549946594639,99.48160813087479,0.11486338294862887,35.913708894931354,1.5630984534658923,-0.0023995055806088784,1.56759802189042,-0.0044995684245277,6762910.063142135,4002524.5825099945
5.599999999999996,-0.040652884144365735,103.14049558491973,0.12612615321580656,36.58887454044941,1.562855775141327,-0.002426783245653453,1.5673492228532264,-0.004493447711899412,6759648.225813594,3999262.745181454
5.699999999999996,-0.026873149583769185,106.86698295024189,0.1377973456059655,37.26487365322153,1.5626103699252156,-0.00245405216111386,1.5670985625455882,-0.004488192620372589,6756386.38047253,3996000.89984039
5.799999999999995,-0.01188495931007567,110.66115370065474,0.14988190273693514,37.94170750412848,1.5623622387044616,-0.0024813122075415294,1.5668460269015496,-0.004483788197088057,6753124.527118921,3992739.046486781
5.899999999999995,0.0043535178946527,114.5230914368876,0.1623847720472837,38.61937736232866,1.5621113823750592,-0.0025085632940229233,1.566591602996499,-0.004480220621439823,6749862.665752752,3989477.1851206115
5.999999999999995,0.02188460907479417,118.45287989634262,0.1753109118014147,39.29788459455031,1.5618578018486744,-0.0025358052638487015,1.5663352788108276,-0.004477476962153171,6746600.796178619,3986215.315546479
6.099999999999994,0.04075113566334605,122.45060293305568,0.18866526588551882,39.9772303671306,1.5616014980176858,-0.002563038309886182,1.5660770437549505,-0.004475545737264719,6743338.91859193,3982953.4379597898
6.199999999999994,0.06099641638724182,126.51634453736915,0.2024528072389577,40.65741604313476,1.5613424717935076,-0.0025902622417816666,1.5658168875270049,-0.004474415733497272,6740077.032797275,3979691.5521651353
6.299999999999994,0.08266426771861195,130.65018882580242,0.21667851331370125,41.338442884332544,1.5610807241046785,-0.0026174768882921326,1.5655548006541158,-0.0044740765494373225,6736815.138794626,3976429.6581624867
6.399999999999993,0.105799003014373,134.85222004085995,0.2313473529576106,42.02031215057541,1.560816255869348,-0.002644682353304989,1.565290774749986,-0.004474518880638101,6733553.236583999,3973167.75595186
6.499999999999993,0.13044543453839436,139.12252256077736,0.24646431524021353,42.70302519917414,1.5605490680187264,-0.0026718785062148625,1.5650248017690236,-0.004475733750297195,6730291.325969997,3969905.845337857
6.5999999999999925,0.15664887370022634,143.46118087939178,0.26203439161831976,43.38658318614417,1.560279161493255,-0.0026990652547152685,1.5647568743543547,-0.00447771286109977,6727029.407147977,3966643.9265158367
6.699999999999992,0.18445511485533148,147.8682796459344,0.2780624115510514,44.07098766542604,1.560006536926694,-0.002726245665609803,1.5644869895961515,-0.004480452669457513,6723767.479532319,3963381.9989001798
6.799999999999992,0.21391132146155228,152.34390274935626,0.2945620660622081,44.75623103421858,1.5597312110305732,-0.00275325896120801,1.5642149456933259,-0.0044837346627526475,6720505.560289558,3960120.079657419
6.8999999999999915,0.24506635699304302,156.88813299328302,0.31155035531490743,45.44230243926765,1.5594532227456361,-0.002779882849370715,1.563940479768078,-0.004487257022441904,6717243.672828782,3956858.192196643
6.999999999999991,0.27796957419557533,161.50105329201284,0.3290321720253231,46.1292029872983,1.5591726109518709,-0.002806117937652756,1.5636636088897804,-0.004490997937909524,6713981.81734642,3953596.3367142812
7.099999999999991,0.3126708098924608,166.182746690314,0.3470123569688551,46.816933983011495,1.5588894144739356,-0.0028319647793522053,1.5633843505552687,-0.004494936081333112,6710719.993648138,3950334.513015999
7.19999999999999,0.34922037987955434,170.9332963532751,0.36549569987093516,47.50549662961098,1.5586036720943401,-0.0028574237959542942,1.5631027225942367,-0.0044990504998965175,6707458.201734951,3947072.721102812
7.29999999999999,0.3876690709319985,175.7527855561612,0.3844869105244415,48.19489202886089,1.558315422514124,-0.002882495802161893,1.5628187437394998,-0.004503321225375778,6704196.441803306,3943810.961171167
7.39999999999999,0.4280681362505098,180.64129770424557,0.40399065318511346,48.88512148084365,1.558024704369727,-0.002907181443969846,1.5625324329050942,-0.004507728535367184,6700934.713658869,3940549.2330267294
7.499999999999989,0.47046929004745164,185.59891632265766,0.4240115379694182,49.5761861841207,1.5577315562407061,-0.0029314812902090648,1.562243809298738,-0.004512253058031934,6697673.017302662,3937287.5366705228
7.599999999999989,0.5149247005759328,190.62572505624627,0.44455410528481076,50.26808733588617,1.5574360166268812,-0.0029553961382499795,1.5619528927236361,-0.004516876096754885,6694411.352735737,3934025.8721035984
7.699999999999989,0.5614869848694063,195.72180766942904,0.46562284293473527,50.96082613182774,1.5571381239566746,-0.0029789267020658003,1.561659703199865,-0.004521579243190299,6691149.719959129,3930764.23932699
7.799999999999988,0.610209203412861,200.88724805607694,0.48722218543454765,51.654403866478916,1.5568379165916764,-0.0030020736499831615,1.5613642609788132,-0.004526344387136838,6687888.118778483,3927502.638146344
7.899999999999988,0.6611448531740697,206.12213021933908,0.5093564976120867,52.3488216326215,1.5565354328087373,-0.0030248378293907473,1.5610665867854927,-0.004531153976755409,6684626.549390215,3924241.0687580765
7.999999999999988,0.7143478636804919,211.42653829155057,0.5320301050642221,53.044080722114835,1.5562307108275488,-0.0030472198118856983,1.5607667012809507,-0.004535990453401917,6681365.011599948,3920979.530967809
8.099999999999987,0.7698725886821879,216.80055651406266,0.5552472500169603,53.74018222512102,1.555923788768006,-0.003069220595428158,1.5604646258135966,-0.004540837045590607,6678103.505604104,3917718.0249719652
8.199999999999987,0.8277738023532973,222.24426925717856,0.5790121367110947,54.437127431159084,1.55561470467975,-0.003090840882560667,1.5601603816117438,-0.004545676931993814,6674842.031208312,3914456.5505761732
8.299999999999986,0.8881066931494672,227.75776101000255,0.6033289079616989,55.134917528239896,1.5553034965368577,-0.003112081428922533,1.559853990159455,-0.004550493622597296,6671580.588413576,3911195.1077814363
8.399999999999986,0.9509268569007414,233.34111638034167,0.6282016375127417,55.833553703391324,1.5549902022159952,-0.003132943208626892,1.5595454733323295,-0.0045552711163343584,6668319.177220919,3907933.69658878
8.499999999999986,1.0162902925122077,238.9944200945776,0.653634356114662,56.53303714235944,1.5546748595219424,-0.003153426940527202,1.5592348529093356,-0.004559993387393213,6665057.79763133,3904672.31699919
8.599999999999985,1.084253394967264,244.7177570076536,0.679631024550562,57.23336913075999,1.554357506161065,-0.003173533608772905,1.558922151068241,-0.0045646449071758965,6661796.449450444,3901410.968818305
8.699999999999985,1.1548729508368936,250.51121209290088,0.7061955586962966,57.934550852472846,1.5540381797660603,-0.003193263950047194,1.5586073898866435,-0.0045692101205832,6658535.13267924,3898149.6520471005
8.799999999999985,1.2282061313996697,256.37487043187883,0.7333318056277617,58.63658338977953,1.5537169178774695,-0.0032126188859079056,1.5582905917500296,-0.004573673872560136,6655273.847514083,3894888.366881943
8.899999999999984,1.3043104871600095,262.30881724453087,0.7610435576033989,59.3394681265205,1.553393757938263,-0.0032315993920638757,1.5579717791796917,-0.004578021241428587,6652012.593565213,3891627.112933073
8.999999999999984,1.3832439417043347,268.31313785886834,0.7893345454432509,60.04320614337483,1.5530687372947198,-0.0032502064354315878,1.5576509748080027,-0.004582237513282905,6648751.371028989,3888365.890396849
9.099999999999984,1.465064786743622,274.3879177209621,0.818208450392872,60.74779862093764,1.5527418932064854,-0.0032684408823446293,1.5573282012554184,-0.004586308048933008,6645490.179906374,3885104.699274234
9.199999999999983,1.5498316763413482,280.53324240497875,0.847668895977263,61.45324684016669,1.5524132628415281,-0.003286303649572785,1.557003481263747,-0.00459021842221885,6642229.0200029565,3881843.5393708167
9.299999999999983,1.637603620784842,286.7491976030346,0.8777194444349368,62.1595519805581,1.5520828832710507,-0.0033037957047749133,1.5566768377007745,-0.004593954429723768,6638967.891319698,3878582.4106875584
