time,x,y,vx,vy,theta,theta_dot,gamma,alpha,mass,mass_propellant
0.1,-0.00016712126854746394,0.06394318861998789,-0.0016712126854746393,0.6394318861998789,1.5707931946956888,-3.132099207696141e-05,1.5734099106906785,-0.0026167159949896934,6939072.479904893,4178686.9992727493
0.2,-0.0005920345569391474,0.19190582923967964,-0.004249132883916835,1.2796264061969176,1.5707852233845192,-7.971311169530887e-05,1.5741169188410427,-0.0033316954565234536,6935794.636529475,4175409.155897332
0.30000000000000004,-0.001301075897125145,0.38396451730392644,-0.007090413401859976,1.920586880642468,1.5707718971236178,-0.00013326260901443357,1.5744881052096134,-0.003716208085995598,6932516.794771613,4172131.314139469
0.4,-0.0022358190881959375,0.6401963496693459,-0.009347431910707922,2.562318323654195,1.570754271141902,-0.00017625981715819878,1.5744443475575782,-0.0036900764156762023,6929238.9498745315,4168853.4692423875
0.5,-0.0034042502546761245,0.9606782686487554,-0.011684311664801869,3.204819189794094,1.5707321439139494,-0.00022127227952618053,1.5744421673877378,-0.0037100234737883486,6925961.105522064,4165575.62488992
0.6,-0.004806029572326173,1.3454873780033294,-0.014017793176500485,3.8480910935457393,1.5707054560964973,-0.00026687817452238056,1.5744391020907997,-0.0037336459943024813,6922683.2613335755,4162297.780701432
0.7,-0.006439495875272543,1.7947009158757319,-0.016334663029463695,4.492135378724025,1.5706741591789257,-0.0003129691757148086,1.5744325909894683,-0.003758431810542584,6919405.417280385,4159019.9366482412
0.7999999999999999,-0.00830207569978154,2.3083962533351565,-0.01862579824508997,5.136953374594248,1.5706382076572742,-0.000359515216515398,1.57442215620478,-0.0037839485475057444,6916127.573355254,4155742.0927231098
0.8999999999999999,-0.010390346694610919,2.886650894286351,-0.020882709948293783,5.782546409511947,1.5705975576875082,-0.00040649969766083915,1.574407645699727,-0.0038100880122187153,6912849.729554586,4152464.248922442
0.9999999999999999,-0.01270004271247424,3.5295424755988654,-0.0230969601786332,6.4289158131251405,1.5705521668349152,-0.00045390852593084493,1.5743889793475088,-0.0038368125125936015,6909571.885875386,4149186.405243242
1.0999999999999999,-0.015226056171544128,4.2371487672326715,-0.02526013459069888,7.07606291633806,1.5705019938787959,-0.000501729561193814,1.574366112364856,-0.003864118486060164,6906294.042315124,4145908.5616829796
1.2,-0.017962429824532177,5.009547672391987,-0.027363736529880493,7.723989051593156,1.5704469988185517,-0.000549950602441828,1.5743390068621606,-0.0038920080436088966,6903016.198871159,4142630.718239015
1.3,-0.020902309319716872,5.846817227821557,-0.029398794951846965,8.372695554295696,1.570387143614871,-0.0005985520368062783,1.5743075823926522,-0.003920438777781143,6899738.355538551,4139352.8749064067
1.4000000000000001,-0.024037983497849656,6.74903560373387,-0.03135674178132785,9.022183759123134,1.5703223912987565,-0.0006475231611464475,1.574271828554174,-0.0039494372554174095,6896460.512314904,4136075.03168276
1.5000000000000002,-0.027360867562823857,7.7162811039508545,-0.033228840649742,9.672455002169844,1.5702527061501192,-0.0006968514863724517,1.5742317224540703,-0.003979016303951033,6893182.66919721,4132797.188565066
1.6000000000000003,-0.030861502239327692,8.748632165965667,-0.03500634676503833,10.323510620148113,1.5701780535815941,-0.0007465256852517765,1.574187248147261,-0.00400919456566684,6889904.826182736,4129519.3455505916
1.7000000000000004,-0.03452953767635214,9.846167361047977,-0.03668035437024446,10.975351950823102,1.5700984003099523,-0.0007965327164173767,1.574138380696181,-0.00403998038622877,6886626.983268151,4126241.502636006
1.8000000000000005,-0.0383537232628601,11.00896539430833,-0.03824185586507963,11.627980332603533,1.570013714420823,-0.0008468588912931359,1.5740850937945505,-0.0040713793737274795,6883349.140449846,4122963.6598177017
1.9000000000000006,-0.04231255747408631,12.23710513918075,-0.03958834211226214,12.281397448724205,1.5699241393715897,-0.00089575049233288,1.5740197551680402,-0.004095615796450458,6880071.297192898,4119685.816560753
2.0000000000000004,-0.04638509950350492,13.530665595630591,-0.04072542029418602,12.935604564498409,1.5698297929496545,-0.0009434642193510205,1.5739446362176417,-0.004114843267987167,6876793.4535850715,4116407.972952927
2.1000000000000005,-0.05055183599860965,14.889725888100434,-0.041667364951047337,13.59060292469843,1.5697307515065542,-0.0009904144310032181,1.5738622124387407,-0.004131460932186526,6873515.60975382,4113130.1291216756
2.2000000000000006,-0.05479607023051126,16.314365262177876,-0.04244234231901606,14.24639374077441,1.569627024370251,-0.0010372713630321365,1.5737754819079346,-0.004148457537683559,6870237.76589398,4109852.2852618354
2.3000000000000007,-0.05910027173163991,17.804663096812806,-0.04304201501128656,14.902978346349297,1.5695186218060282,-0.001084025642228461,1.5736844672950479,-0.0041658454890196595,6866959.922002926,4106574.441370781
2.400000000000001,-0.06344607615959756,19.36069890426567,-0.04345804427957644,15.560358074528661,1.569405555027758,-0.001130667782702225,1.5735891886994446,-0.004183633671686726,6863682.078078019,4103296.597445875
2.500000000000001,-0.06781428587294795,20.982552330040683,-0.04368209713350384,16.21853425775011,1.5692878361988012,-0.0011771882895664732,1.5734896646030447,-0.004201828404243546,6860404.234116642,4100018.753484498
2.600000000000001,-0.07218486761739913,22.670303152813986,-0.04370581744451185,16.877508227733017,1.5691654784894709,-0.001223577093302455,1.5733859104679415,-0.004220431978470662,6857126.390116035,4096740.909483891
2.700000000000001,-0.07653695364084905,24.42403128433913,-0.04352086023449909,17.537281315251438,1.569038496073808,-0.0012698241566287305,1.573277941254536,-0.004239445180727941,6853848.546073476,4093463.065441332
2.800000000000001,-0.08084884302963811,26.243816769339684,-0.04311889388789067,18.19785485000554,1.5689069041253207,-0.0013159194848726904,1.5731657716305423,-0.004258867505221531,6850570.701986282,4090185.221354138
2.9000000000000012,-0.08509800139156742,28.129739785393422,-0.042491583619293026,18.859230160537365,1.5687707188464663,-0.0013618527885450114,1.5730494151424081,-0.004278696295941797,6847292.857851719,4086907.3772195745
3.0000000000000013,-0.08926106661126769,30.081880642790946,-0.04163065219700261,19.521408573975236,1.5686299573886038,-0.0014076145786251356,1.5729288875130294,-0.004298930124425615,6844015.013667307,4083629.533035163
3.1000000000000014,-0.0933138449425139,32.10031978440354,-0.04052778331246204,20.18439141612589,1.568484637954164,-0.001453194344398125,1.5728042014943866,-0.004319563540222671,6840737.1694303155,4080351.688798172
3.2000000000000015,-0.0972313195070458,34.18513778551428,-0.03917474564531915,20.848180011107424,1.5683347796719336,-0.0014985828223045806,1.5726753732880758,-0.004340593616142252,6837459.3251383975,4077073.8445062544
3.3000000000000016,-0.10098764797335018,36.33641535365916,-0.03756328466304375,21.512775681448808,1.5681804026758754,-0.001543769960580406,1.572542416980773,-0.004362014304897466,6834181.4807890225,4073796.0001568794
3.4000000000000017,-0.10455616676064497,38.55423332844509,-0.035685187872947964,22.17817974785932,1.5680215280660776,-0.00158874609797827,1.5724053478003595,-0.004383819734281813,6830903.636379806,4070518.155747663
3.5000000000000018,-0.107909398326679,40.83867268135463,-0.03353231566034032,22.844393529095345,1.567858177815651,-0.0016335025042651429,1.5722641832969608,-0.0044060054813097604,6827625.791908659,4067240.311276516
3.600000000000002,-0.11101904788911367,43.18981451555461,-0.03109649562434658,23.511418341999818,1.5676903748760682,-0.0016780293958281805,1.5721189385165557,-0.004428563640487493,6824347.947373241,4063962.466741098
3.700000000000002,-0.11385601046697315,45.607740065681675,-0.028369625778594795,24.17925550127068,1.5675181430944394,-0.0017223178162880655,1.5719696306114195,-0.004451487516980102,6821070.102771481,4060684.6221393375
3.800000000000002,-0.11639037648063522,48.09253069762188,-0.025343660136620635,24.8479063194021,1.567341507160372,-0.0017663593406740275,1.5718162779739822,-0.0044747708136101405,6817792.258101488,4057406.7774693454
3.900000000000002,-0.11859143359281991,50.644267908284505,-0.02201057112184692,25.51737210662626,1.567160492625057,-0.001810145353149693,1.5716588985977857,-0.0044984059727286585,6814514.413361365,4054128.932729222
4.000000000000002,-0.12042766824402486,53.26303332536577,-0.018362346512049453,26.18765417081264,1.5669751259286868,-0.0018536669637026061,1.5714975100082897,-0.004522384079602926,6811236.56854918,4050851.087917037
4.100000000000001,-0.12186677569421277,55.94890870710188,-0.014391074501879155,26.858753817361137,1.566785434273462,-0.001896916552248658,1.5713321324850105,-0.004546698211548517,6807958.723663383,4047573.24303124
4.200000000000001,-0.12287566125582489,58.70197594201734,-0.01008885561612122,27.530672349154635,1.5665914456619006,-0.0019398861156147645,1.5711627855226948,-0.004571339860794277,6804680.878702363,4044295.3980702194
4.300000000000001,-0.12342044580100622,61.5223170486648,-0.005447845451813335,28.20341106647463,1.5663931888587148,-0.0019825680318577136,1.5709894894365082,-0.004596300577793366,6801403.033664649,4041017.553032506
4.4,-0.12346647160182267,64.41001417535877,-0.0004602580081644247,28.876971266939584,1.566190693349028,-0.0020249550968691192,1.5708122653780627,-0.004621572029034793,6798125.188548923,4037739.7079167785
4.5,-0.12297830474725499,67.36514959990058,0.004881668545676807,29.551354245418132,1.5659839893621206,-0.00206703986907406,1.570631134077814,-0.004647144715693496,6794847.3433538405,4034461.862721697
4.6,-0.12191974483838472,70.3878057293028,0.010585599088702758,30.22656129402219,1.5657731077632906,-0.0021088159882994835,1.5704461182960543,-0.0046730105327636995,6791569.498078381,4031184.0174462376
4.699999999999999,-0.12025382547872651,73.47806509949955,0.016659193596582023,30.902593701967493,1.5655580801176454,-0.002150276456451894,1.5702572396184789,-0.004699159500833439,6788291.652721396,4027906.172089253
4.799999999999999,-0.11794282393090003,76.63601037506139,0.023110015478264804,31.57945275561844,1.5653389385871204,-0.0021914153052496883,1.5700645214804834,-0.004725582893363001,6785013.807282038,4024628.3266498954
4.899999999999999,-0.11494826588958193,79.86172434890017,0.02994558041318096,32.257139738387764,1.5651157159195779,-0.0022322266754254733,1.5698679874550314,-0.004752271535453545,6781735.961759523,4021350.48112738
4.999999999999998,-0.11123092890428399,83.15528994196563,0.0371733698529794,32.93565593065463,1.5648884454647127,-0.0022727045486522824,1.5696676608243036,-0.004779215359590916,6778458.116153061,4018072.6355209188
5.099999999999998,-0.10675085268115615,86.5167902029516,0.0448007622312784,33.615002609859644,1.5646571610652624,-0.002312843994501957,1.5694635666512946,-0.004806405586032181,6775180.270462169,4014794.789830027
5.1999999999999975,-0.1014673409126193,89.94630830798067,0.05283511768536849,34.295181050290715,1.5644218971059503,-0.002352639593121341,1.5692557291287832,-0.00483383202283294,6771902.4246862745,4011516.944054133
5.299999999999997,-0.09533897036203973,93.44392756030211,0.06128370550579577,34.976192523214415,1.5641826884306826,-0.0023920867526752644,1.5690441737339074,-0.004861485303224722,6768624.578825038,4008239.0981928967
5.399999999999997,-0.08832359677048496,97.00973138997973,0.07015373591554767,35.65803829677618,1.5639395703198677,-0.002431181108148322,1.5688289262099913,-0.004889355890123515,6765346.732878205,4004961.2522460637
5.4999999999999964,-0.08037836009594851,100.64380335357454,0.0794523667453645,36.34071963594812,1.5636925784815277,-0.0024699183833998576,1.5686100123534676,-0.004917433871939991,6762068.88684557,4001683.4062134284
5.599999999999996,-0.07145969390188499,104.3462271338393,0.08918666194063521,37.024237802647704,1.5634417489676333,-0.0025082951389439833,1.568387459125295,-0.004945710157661765,6758791.04072715,3998405.560095008
5.699999999999996,-0.06152332840998106,108.11708653938925,0.09936365491903928,37.70859405549941,1.5631871182081702,-0.00254630759463012,1.568161292860757,-0.004974174652586649,6755513.194522906,3995127.7138907644
5.799999999999995,-0.05052430003528463,111.95646550439508,0.10999028374696423,38.393789650058324,1.5629287229274298,-0.0025839528074039306,1.5679315410091577,-0.005002818081727867,6752235.348233018,3991849.867600876
5.899999999999995,-0.038416956104622146,115.86444808825628,0.12107343930662486,39.07982583861194,1.5626666001499148,-0.002621227775149607,1.567698230799176,-0.005031630649261265,6748957.50185767,3988572.0212255274
5.999999999999995,-0.025154962900862714,119.84111847528749,0.13261993203759434,39.766703870312014,1.5624007871462915,-0.0026581300362335373,1.5674613900897538,-0.005060602943462333,6745679.655397188,3985294.1747650453
6.099999999999994,-0.010691313692573957,123.8865609744059,0.14463649208288756,40.45442499118411,1.5621313213806134,-0.002694657656780576,1.567221047308513,-0.005089725927899691,6742401.808852032,3982016.3282198897
6.199999999999994,0.005021667582478604,128.00086001879635,0.1571298127505256,41.14299044390439,1.5618582405380925,-0.002730808425209499,1.5669772303433351,-0.005118989805242613,6739123.962222614,3978738.481590472
6.299999999999994,0.02203231783855042,132.1841001656005,0.17010650256071816,41.83240146804172,1.561581582465777,-0.0027665807231547525,1.5667299677286202,-0.005148385262843114,6735846.1155094905,3975460.6348773483
6.399999999999993,0.04038962577881724,136.43636609561221,0.18357307940266818,42.52265930011702,1.5613013851032833,-0.0028019736249374374,1.5664792887258607,-0.005177903622577418,6732568.268713376,3972182.7880812334
6.499999999999993,0.06014322734213683,140.75774261294717,0.19753601563319595,43.21376517334944,1.5610176864967078,-0.0028369860657547655,1.566225222217438,-0.005207535720730183,6729290.4218349615,3968904.941202819
6.5999999999999925,0.08134339864428583,145.14831464472792,0.21200171302149,43.90572031780754,1.5607305247671477,-0.0028716172956007664,1.5659677973026311,-0.00523727253548345,6726012.574875012,3965627.09424287
6.699999999999992,0.10404104792363986,149.60816724077736,0.22697649279354026,44.598525960494534,1.5604399380614569,-0.002905867056908841,1.5657070434996005,-0.005267105438143682,6722734.7278344,3962349.2472022576
6.799999999999992,0.12828770738128117,154.13738557331595,0.24246659457641312,45.29218332538593,1.560145964501406,-0.002939735600508797,1.5654429907322298,-0.0052970262308238425,6719456.880714101,3959071.400081959
6.8999999999999915,0.1541355280061435,158.73605493663942,0.25847820624862305,45.986693633234566,1.5598486421876314,-0.0029732231377453144,1.5651756686459564,-0.005327026458324946,6716179.033515083,3955793.5528829405
6.999999999999991,0.1816372719380706,163.40426074681616,0.27501743931927114,46.682058101767346,1.5595480091586797,-0.0030063302895162155,1.5649051071514888,-0.0053570979928090345,6712901.186238391,3952515.7056062487
7.099999999999991,0.21084630565487272,168.14208854138104,0.29209033716802113,47.37827794564892,1.5592441033651725,-0.0030390579350725545,1.5646313362270534,-0.0053872328618809195,6709623.338885119,3949237.8582529766
7.19999999999999,0.24181659524751664,172.94962397901355,0.3097028959264393,48.07535437632516,1.5589369626820844,-0.0030714068308806577,1.564354385474805,-0.0054174227927206164,6706345.491456329,3945960.010824186
7.29999999999999,0.2746026938055806,177.826952839287,0.32786098558063953,48.7732886027345,1.5586266247768454,-0.0031033790523898883,1.564074285761084,-0.005447660984238656,6703067.64395333,3942682.1633211873
7.39999999999999,0.3092597376969262,182.77416102234483,0.3465704389134561,49.472081830578354,1.5583131271395925,-0.003134976372528921,1.5637910673250857,-0.005477940185493191,6699789.796377361,3939404.3157452187
7.499999999999989,0.34584344056551153,187.7913345485982,0.3658370286858532,50.17173526253385,1.5579965070713735,-0.00316620068218995,1.5635047602730323,-0.005508253201658819,6696511.948729669,3936126.468097527
7.599999999999989,0.38441008753541495,192.87855955842377,0.3856664696990344,50.872250098255705,1.55767680167574,-0.0031970539563341183,1.5632153945425737,-0.005538592866833669,6693234.1010115035,3932848.6203793613
7.699999999999989,0.42501652502336074,198.03592231190927,0.406064374879458,51.57362753485496,1.5573540477698347,-0.0032275390590546025,1.5629230007616133,-0.00556895299177862,6689956.253224262,3929570.7725921203
7.799999999999988,0.4677201556541062,203.26350918855238,0.4270363063074544,52.27586876643093,1.5570282818879586,-0.0032576588187607047,1.5626276092216982,-0.005599327333739579,6686678.405369317,3926292.924737176
7.899999999999988,0.5125789330413628,208.56140668696258,0.44858777387256576,52.97897498410217,1.556699540282005,-0.003287416059536242,1.562329249921562,-0.005629709639557001,6683400.55744802,3923015.076815879
7.999999999999988,0.5596513531473712,213.92970142460445,0.4707242010600844,53.682947376418646,1.5563678588588719,-0.003316814231331688,1.5620279532195975,-0.005660094360725676,6680122.709461814,3919737.228829672
8.099999999999987,0.6089964503498336,219.36848013749153,0.49345097202462357,54.387787128870954,1.5560332732028324,-0.003345856560395477,1.561723748941034,-0.005690475738201695,6676844.861412077,3916459.3807799355
8.199999999999987,0.6606737869471749,224.87782967996122,0.5167733659734134,55.09349542469683,1.5556958184775955,-0.0033745472523692907,1.5614166675991215,-0.005720849121525928,6673567.013300338,3913181.5326681966
8.299999999999986,0.7147434522000379,230.45783702433891,0.5406966525286296,55.800073443776945,1.555355529500968,-0.00340288976627522,1.5611067386386432,-0.0057512091376752394,6670289.165127968,3909903.6844958267
8.399999999999986,0.7712660528729157,236.1085892607092,0.5652260067287784,56.50752236370308,1.5550124406638786,-0.0034308883708946162,1.5607939920030904,-0.005781551339211877,6667011.3168964535,3906625.836264312
8.499999999999986,0.8303027069078218,241.8301735966538,0.590366540349061,57.21584335944584,1.554666585905352,-0.003458547585266202,1.5604784575526165,-0.005811871647264599,6663733.468607293,3903347.9879751513
8.599999999999985,0.8919151414313098,247.62267735556404,0.6161243452348799,57.925037589102295,1.554318000583238,-0.003485853221140026,1.560160147052967,-0.005842146469728915,6660455.6202588845,3900070.139626742
8.699999999999985,0.9561661280965309,253.48618797006014,0.6425098666522112,58.635106144961036,1.5539667294778337,-0.0035127110540434164,1.5598389977340819,-0.005872268256248203,6657177.771836771,3896792.2912046285
8.799999999999985,1.0231191854320518,259.420792985397,0.66953057335521,59.346050153368644,1.5536128214959082,-0.0035390798192536294,1.5595150002695686,-0.005902178773660394,6653899.923335659,3893514.4427035176
8.899999999999984,1.0928373064592654,265.4265800777976,0.6971812102721364,60.057870924006416,1.5532563066922769,-0.003565148036313536,1.5591883579244623,-0.005932051232185431,6650622.074786461,3890236.5941543193
8.999999999999984,1.1653839531792698,271.5036370399988,0.7254664672000448,60.7705696220119,1.552897214422362,-0.0035909226991480397,1.558859101056082,-0.005961886633719882,6647344.22619083,3886958.745558688
9.099999999999984,1.2408230606189061,277.6520517808652,0.754391074396363,61.48414740866376,1.5525355734914588,-0.003616409309034028,1.5585272582143068,-0.005991684722848056,6644066.377550154,3883680.896918012
9.199999999999983,1.319219032574119,283.87191232512663,0.783959719552129,62.19860544261442,1.5521714121516146,-0.0036416133984413118,1.5581928575766264,-0.006021445425011818,6640788.528865796,3880403.0482336534
9.299999999999983,1.4006367380020268,290.1633068131071,0.814177054279078,62.91394487980455,1.551804758108727,-0.0036665404288749055,1.5578559268628027,-0.006051168754075631,6637510.680139078,3877125.1995069357
