time[s],x[m],y[m],vx[m/s],vy[m/s],theta[rad],theta_dot[rad/s],gamma[rad],alpha[rad],mass[kg],mass_propellant[kg]
379.9000000000179,13673.174977058145,43302.16000413055,-59.759971075398646,-1268.972670630402,1.5347266795272294,-0.011290498890064974,4.665330558070038,-3.130603878542809,401300.80271292944,128249.07523180894
380.0000000000179,13667.237693067234,43176.19222768787,-59.372839909096044,-1259.6777644267916,1.5336006381110168,-0.011260414162126385,4.6652904815023835,-3.1316898433913667,400156.12510062475,127104.39761950425
380.1000000000179,13661.341100004558,43051.15675234613,-58.96593062676056,-1250.354753417441,1.532478849842404,-0.011217882686127278,4.66526453414986,-3.132785684307456,399011.4979033591,125959.77042223862
380.20000000001795,13655.487106752575,42927.05640054679,-58.53993251984143,-1241.0035179933968,1.5313624106915449,-0.011164391508590237,4.665252473844775,-3.13389006315323,397866.9252715232,124815.19779040269
380.300000000018,13649.677558916643,42803.89400709077,-58.09547835931002,-1231.6239345602155,1.5302522831594783,-0.011101275320666742,4.665254098674024,-3.1350018155145456,396722.4114775779,123670.68399645737
380.400000000018,13643.91424397708,42681.672420108785,-57.6331493956323,-1222.2158698198625,1.5291493099553148,-0.011029732041633402,4.6652692441791945,-3.1361199342238795,395577.959573281,122526.2320921605
380.500000000018,13638.198895918369,42560.394500951,-57.153480587114736,-1212.779191577837,1.5280542262649996,-0.010950836903151654,4.6652977808948,-3.1372435546298005,394433.57334281225,121381.84586169175
380.60000000001804,13632.533199471807,42440.06312503582,-56.65696446561772,-1203.313759151822,1.526967670767766,-0.010865554972337549,4.665339612116838,-3.138371941349072,393289.2555937888,120237.52811266831
380.70000000001806,13626.918793950954,42320.681182328364,-56.14405520852867,-1193.8194270745555,1.5258901955166682,-0.010774752510979091,4.665394671930442,-3.139504476413774,392145.00888968725,119093.28140856675
380.8000000000181,13621.357276712573,42202.251577263145,-55.61517238381129,-1184.2960506521893,1.5248222748074436,-0.010679207092246477,4.6654629235036005,-3.1406406486961567,391000.8357939841,117949.10831286362
380.9000000000181,13615.850206339652,42084.77722953768,-55.07070372920981,-1174.7434772547035,1.5237643131401195,-0.010579616673240623,4.665544357560052,-3.141780044419933,389856.7387480857,116805.01126696519
381.00000000001813,13610.399105491591,41968.261073987356,-54.51100848061067,-1165.1615555032179,1.522716652357287,-0.010476607828325062,4.665638991038878,-3.1429223386815908,388712.71982718725,115660.99234606675
381.10000000001816,13605.00546352264,41852.70606097352,-53.93641968951265,-1155.5501301383692,1.5216795780580663,-0.010370742992207964,4.665746865989975,-3.144067287931909,387568.78122855444,114517.05374743394
381.2000000000182,13599.670738860723,41738.11515672136,-53.347246619170846,-1145.9090425215975,1.520653325350542,-0.010262527075243168,4.665868048587082,-3.1452147232365393,386424.92502738256,113373.19754626206
381.3000000000182,13594.396361186324,41624.4913438234,-52.74377674399166,-1136.238128979632,1.5196380840198813,-0.010152413306607383,4.666002628361389,-3.146364544341508,385281.1526885154,112229.42520739487
381.4000000000182,13589.183733374928,41511.83762094583,-52.12627811395586,-1126.5372287757004,1.5186340031600414,-0.010040808598399564,4.666150717478635,-3.147516714318593,384137.4661650779,111085.73868395737
381.50000000001825,13584.034233307797,41400.15700331355,-51.49500067130389,-1116.8061763228013,1.5176411953361395,-0.009928078239019611,4.6663124502691655,-3.148671254933026,382993.86728812475,109942.13980700425
381.60000000001827,13578.949215522349,41289.45252305055,-50.85017785448183,-1107.0448026299507,1.5166597403253421,-0.009814550107974584,4.666487982873054,-3.149828242547712,381850.3572783591,108798.62979723862
381.7000000000183,13573.93001270947,41179.72722935565,-50.19202812879289,-1097.252936949018,1.5156896884712274,-0.009700518541146239,4.666677492950322,-3.1509878044790947,380706.93760062475,107655.21011950425
381.8000000000183,13568.977937062971,41070.984188312745,-49.52075646499723,-1087.4304104291027,1.51473106369465,-0.009586247765774507,4.666881179515679,-3.152150115821029,379563.609963906,106511.8824827855
381.90000000001834,13564.094281566571,40963.226483588296,-48.836554963993834,-1077.5770472444628,1.5137838662069212,-0.009471974877289163,4.667099263034967,-3.153315396828045,378420.3757109763,105368.64822985581
382.00000000001836,13559.280321122915,40856.45721626679,-48.13960443656786,-1067.692673215086,1.5128480749367925,-0.009357912701286997,4.667331985392625,-3.1544839104558324,377277.2361846091,104225.50870348862
382.1000000000184,13554.537313643445,40750.6795055173,-47.430074794708965,-1057.7771074949162,1.5119236497222748,-0.009244252145178235,4.667579610261795,-3.1556559605395202,376134.19236136694,103082.46488024644
382.2000000000184,13549.866500980781,40645.89648807627,-46.70812662663921,-1047.8301744102778,1.5110105332736352,-0.00913116448639647,4.667842423246139,-3.1568318899725036,374991.24607230444,101939.51859118394
382.30000000001843,13545.269109467525,40542.1113153935,-45.97391513255882,-1037.8517268277205,1.5101086526935619,-0.009018805800733776,4.668120730244016,-3.1580120775504543,373848.4020781638,100796.67459704331
382.40000000001845,13540.746354742441,40439.32721284161,-45.227547250837304,-1027.8410255189071,1.509217921664159,-0.008907310294028543,4.668414873623278,-3.159196951959119,372705.60361624975,99653.87613512925
382.5000000000185,13536.299443373835,40337.54748701213,-44.46911368605509,-1017.7972582947214,1.508338242231731,-0.008796794324280514,4.6687252258777745,-3.1603869836460436,371562.7868437888,98511.05936266831
382.6000000000185,13531.929569590548,40236.77546657794,-43.698737832870655,-1007.7202043419044,1.507469505472574,-0.008687367591571796,4.669052171557892,-3.161582666085318,370419.9505400779,97368.22305895737
382.7000000000185,13527.637915337007,40137.01449347187,-42.91654253540948,-997.6097310607013,1.5066115925936383,-0.008579128789357397,4.66939611872069,-3.1627845261270515,369277.10276175756,96225.37528063706
382.80000000001854,13523.425654995845,40038.26796709522,-42.12260341161938,-987.4652637665129,1.5057643777172887,-0.008472148763496888,4.6697575244595235,-3.163993146742235,368134.20603324194,95082.47855212144
382.90000000001857,13519.293953988472,39940.53929535933,-41.31701007372057,-977.2867173588616,1.5049277302629784,-0.008366474543103325,4.670136876183415,-3.1652091459204366,366991.2737822654,93939.54630114487
383.0000000000186,13515.24397267631,39843.831942530174,-40.499813121619155,-967.0735282916179,1.504101516014478,-0.008262142485005194,4.670534705347959,-3.166433189333481,365848.27048636694,92796.54300524644
383.1000000000186,13511.27686880567,39748.149456370746,-39.67103870639732,-956.8248615942791,1.5032855978374202,-0.008159181770577275,4.670951584810281,-3.1676659869728603,364705.1336455466,91653.40616442612
383.20000000001863,13507.393793051233,39653.495404771464,-38.83075754436532,-946.5405159928249,1.5024798352499442,-0.008057625874760867,4.671388098387849,-3.1689082631379053,363561.86618949194,90510.13870837144
383.30000000001866,13503.595890399556,39559.873396672294,-37.97902651675982,-936.2200809917259,1.501684084377571,-0.007957508723732252,4.671844866118322,-3.1701607817407513,362418.4500517966,89366.72257067612
383.4000000000187,13499.884299347203,39467.287067010955,-37.11591052354078,-925.8632966133697,1.5008981982000005,-0.007858861775703862,4.672322539079934,-3.171424340879933,361274.88279105444,88223.15530993394
383.5000000000187,13496.260154824035,39375.74010233049,-36.241445231678256,-915.4696468046359,1.5001220279320553,-0.007761702679452245,4.672821824153274,-3.1726997962212193,360131.1363310935,87079.408849973
383.6000000000187,13492.724580851906,39285.236129806064,-35.3557397212956,-905.0397252443067,1.4993554235122453,-0.007666044198101262,4.673343433922829,-3.173988010410584,358987.2946562888,85935.56717516831
383.70000000001875,13489.278696767831,39195.77878715839,-34.45884084073961,-894.5734264766999,1.498598235235436,-0.007571882768094173,4.673888157677481,-3.1752899224420448,357843.3709502341,84791.64346911362
383.80000000001877,13485.923622111615,39107.37178019269,-33.5507465621584,-884.0700696570356,1.4978503145165882,-0.007479207188476367,4.674456858578516,-3.1766065440619276,356699.320901406,83647.5934202855
383.9000000000188,13482.660473421727,39020.0188408634,-32.63148689887943,-873.5293932929467,1.4971115134449566,-0.0073880107163153816,4.675050430410859,-3.177938916965902,355555.14267874975,82503.41519762925
384.0000000000188,13479.490354299342,38933.723593156516,-31.70119122384988,-862.952477068807,1.496381684601296,-0.007298288436605673,4.67566975980102,-3.1792880751997243,354410.96787406225,81359.24039294175
384.10000000001884,13476.414363549107,38848.48965573719,-30.75990750235041,-852.33937419326,1.4956606818218825,-0.007210027794136327,4.676315832832809,-3.180655151010926,353266.8249297263,80215.09744860581
384.20000000001886,13473.433593881926,38764.32062966766,-29.80769667181849,-841.6902606952931,1.4949483596941349,-0.00712322127747592,4.67698968180032,-3.182041322106185,352122.7547392966,79071.02725817612
384.3000000000189,13470.549129479843,38681.22006585808,-28.84464402082429,-831.0056380958245,1.49424457355409,-0.00703786140044887,4.677692382843422,-3.1834478092893326,350978.82932425756,77927.10184313706
384.4000000000189,13467.762051821013,38599.19153654519,-27.87077658829466,-820.2852931288598,1.4935491798974143,-0.006953936566754839,4.678425115283334,-3.1848759353859197,349835.0502715232,76783.32279040269
384.50000000001893,13465.07343973461,38518.2386360161,-26.886120864031277,-809.5290052908897,1.4928620362213787,-0.006871436760356865,4.679189129938152,-3.1863270937167734,348691.41904593725,75639.69156481675
384.60000000001895,13462.484369159274,38438.364988251924,-25.890705753363147,-798.7364776418136,1.4921829999905911,-0.006790362307874923,4.679985748079652,-3.1878027480890605,347547.9291777732,74496.20169665269
384.700000000019,13459.995910168378,38359.57421266669,-24.884589908968387,-787.9077558523359,1.4915119282363474,-0.006710717542436755,4.680816349454772,-3.1893044212184245,346404.60837699194,73352.88089587144
384.800000000019,13457.609139074899,38281.87007119047,-23.86771093478816,-777.0414147621889,1.4908486779664234,-0.006632502699240786,4.681682497457153,-3.19083381949073,345261.34189749975,72209.61441637925
384.900000000019,13455.32512452387,38205.256292260674,-22.840145510284096,-766.1377892979144,1.490193106002968,-0.006555719634553304,4.682585747892688,-3.19239264188972,344118.1862578513,71066.45877673081
385.00000000001904,13453.1449290135,38129.736582653095,-21.80195510369075,-755.1970960758124,1.489545069573876,-0.006480364290921526,4.683527771268547,-3.1939827016946705,342975.1858916404,69923.45841051987
385.10000000001907,13451.069613852522,38055.31468539676,-20.753151609792205,-744.2189725633049,1.4889044265340798,-0.006406430397959738,4.684510391504881,-3.1956059649708015,341832.33005667944,68780.60257555894
385.2000000000191,13449.100240255537,37981.99439416902,-19.693735969857467,-733.2029122774296,1.4882710351286152,-0.006333914054645476,4.685535565516518,-3.1972645303879026,340689.59385062475,67637.86636950425
385.3000000000191,13447.23787069961,37909.77956475935,-18.62369555927353,-722.1482940966891,1.4876447542084896,-0.006262809201256987,4.686605400251556,-3.1989606460430657,339546.9428496482,66495.21536852769
385.40000000001913,13445.48357630179,37838.6741898174,-17.542943978186454,-711.0537494195335,1.4870254441099888,-0.006193100985008339,4.687722229305905,-3.200696785195916,338404.2718291404,65352.544348019874
385.50000000001916,13443.838442995035,37768.68246033789,-16.45133306756116,-699.9172947950668,1.4864129672090367,-0.006124769009521853,4.688888626027383,-3.2024756588183463,337261.4194121482,64209.691931027686
385.6000000000192,13442.303557863199,37699.80861210495,-15.348851318350029,-688.7384823294418,1.4858071868273073,-0.006057803817293487,4.690107212326386,-3.2043000254990788,336118.37131644506,63066.64383532456
385.7000000000192,13440.880010126364,37632.05693697697,-14.235477368348054,-677.5167512797556,1.485207967097072,-0.005992197302352477,4.691380816324861,-3.206172849227789,334975.1028838279,61923.375402707374
385.8000000000192,13439.568894031556,37565.43181391227,-13.111160948082645,-666.2512306470664,1.4846151729789185,-0.005927941181533678,4.692712515639728,-3.208097342660809,333831.5612578513,60779.83377673081
385.90000000001925,13438.371304560455,37499.937660616815,-11.975894711016043,-654.9415329545405,1.484028669940953,-0.005865030379654603,4.694105577006841,-3.210076907065888,332687.7397246482,59636.012243527686
386.00000000001927,13437.28833723303,37435.5789303685,-10.82967327424069,-643.587302483116,1.4834483239091472,-0.0058034603180585976,4.69556352210222,-3.212115198193073,331543.63474417944,58491.907263058936
386.1000000000193,13436.321085692858,37372.36009435337,-9.672515401728818,-632.1883601513738,1.4828740004500363,-0.005743234591109906,4.697090121111481,-3.214216120661445,330399.2596221091,57347.532140988624
386.2000000000193,13435.470639993138,37310.28562051046,-8.504456997206283,-620.7447384290681,1.482305564857937,-0.005684355920992557,4.698689428166698,-3.2163838633087614,329254.64743949194,56202.919958371436
386.30000000001934,13434.73809182212,37249.3600162291,-7.325481710174941,-609.2560428136356,1.4817428832698862,-0.00562681588050828,4.700365909269191,-3.218623025999305,328109.7918486716,55058.064367551124
386.40000000001936,13434.124535362422,37189.58783207578,-6.135564596982878,-597.7218415332023,1.4811858229284722,-0.00557060341413924,4.702124424723737,-3.2209386017952646,326964.6832060935,53912.955724973
386.5000000000194,13433.631066838734,37130.97364236561,-4.934685236872391,-586.1418971017281,1.4806342530007965,-0.005515699276756391,4.703970253317337,-3.2233360003165403,325819.33005667944,52767.602575558936
386.6000000000194,13433.258787559975,37073.522065505764,-3.722792787602555,-574.5157685984182,1.480088045285797,-0.005462077149996087,4.705909191861646,-3.225821146575849,324673.72275687475,51621.99527575425
386.70000000001943,13433.008803211786,37017.23775645425,-2.499843481885593,-562.8430905151957,1.479547073935994,-0.005409713498031022,4.707947552415775,-3.2284004784797813,323527.85862113256,50476.13114001206
386.80000000001945,13432.882223652436,36962.12540367546,-1.2657955935047456,-551.1235277878861,1.4790112152917971,-0.00535858644196862,4.710092229649211,-3.231081014357414,322381.73825980444,49330.010778683936
386.9000000000195,13432.880163128306,36908.18973132475,-0.020605241289270992,-539.3567235071802,1.4784803476681398,-0.005308676236573867,4.712350777020606,-3.233870429352466,321235.3606963279,48183.633215207374
387.0000000000195,13433.003740434986,36855.43550178019,1.2357730667969098,-527.5422954455582,1.4779543510934374,-0.005259965747024835,4.714731486032291,-3.236777134938854,320088.7231230857,47036.995641965186
387.1000000000195,13433.254077252004,36803.86749351148,2.5033681701857815,-515.6800826871157,1.4774331073628444,-0.005212437305931101,4.717243440716953,-3.239810333354108,318941.84287406225,45890.11539294175
387.20000000001954,13433.632294638222,36753.4904778032,3.7821738621786025,-503.77015708282886,1.4769164990162063,-0.005166083466382316,4.719896576357293,-3.2429800773410866,317794.75803519506,44743.03055407456
387.30000000001957,13434.139516406096,36704.3092541165,5.072217678733135,-491.8122368669746,1.47640440927357,-0.005120897426363863,4.722701936173916,-3.246297526900346,316647.4754424216,43595.747961301124
387.4000000000196,13434.776874189374,36656.32870083706,6.373577832774969,-479.80553279440846,1.4758967220561543,-0.005076872174156011,4.7256718680377165,-3.2497751459815625,315499.95700980444,42448.229528683936
387.5000000000196,13435.54552345253,36609.553924088286,7.686492631568037,-467.74776748774775,1.4753933228916079,-0.0050339916454638445,4.7288204876697515,-3.2534271647781434,314352.03440238256,41300.30692126206
387.60000000001963,13436.446614606155,36563.98997359589,9.010911536242135,-455.63950492396646,1.474894097547211,-0.00499225344397009,4.732162808100068,-3.2572687105528573,313203.7917266013,40152.06424548081
387.70000000001966,13437.481301362659,36519.64192890436,10.346867565041977,-443.4804469152949,1.4743989320577142,-0.004951654894966002,4.735715805392281,-3.2613168733345663,312055.2370391013,39003.50955798081
387.8000000000197,13438.65074352084,36476.51492678906,11.694421581807683,-431.270021153019,1.4739077127012603,-0.004912193564537999,4.739498577635924,-3.265590864934664,310906.3543486716,37854.626867551124
387.9000000000197,13439.95610499368,36434.61414086431,13.053614728399928,-419.0078592474712,1.4734203258788294,-0.00487386822430939,4.743532534956529,-3.2701122090776993,309757.14646292944,36705.418981808936
388.0000000000197,13441.398548438807,36393.94472025996,14.424434451264785,-406.694206043486,1.4729366583294181,-0.004836675494113266,4.7478416384673015,-3.274904980137883,308607.66916800756,35555.94168688706
388.10000000001975,13442.97923925895,36354.51182451512,15.806908201436503,-394.32895744842693,1.4724565973359287,-0.004800609934894162,4.75245311868782,-3.279996521351891,307457.9479766013,34406.22049548081
388.20000000001977,13444.699349016453,36316.320656459706,17.201097575029966,-381.9116805541052,1.4719800306801833,-0.004765666557454542,4.757398026904142,-3.285417996223959,306307.9799590232,33256.252477902686
388.3000000000198,13446.560055095457,36279.37645554808,18.607060790031554,-369.44200911627695,1.4715068466571406,-0.0047318402304278645,4.762711767033263,-3.2912049203761224,305157.7684111716,32106.040930051124
388.4000000000198,13448.562547748328,36243.684548336874,20.02492652871614,-356.9190721120571,1.4710369336924145,-0.004699129647260125,4.7684351724464875,-3.297398238754073,304007.26682425756,30955.53934313706
388.50000000001984,13450.708030933509,36209.25032414123,21.45483185180122,-344.3422419564738,1.4705701788401209,-0.004667548522937009,4.77461524913006,-3.3040450702899395,302856.43381644506,29804.70633532456
388.60000000001986,13452.99772751947,36176.079320767705,22.896965859626054,-331.71003373524655,1.4701064698680775,-0.00463708972043508,4.781306713233035,-3.311200243364958,301705.1813750388,28653.45389391831
388.7000000000199,13455.432886985978,36144.17727287895,24.351594665071072,-319.0204788875297,1.469645696127629,-0.004607737404484729,4.788573629949789,-3.3189279338221596,300553.3823027732,27501.654821652686
388.8000000000199,13458.014789976429,36113.55015256606,25.81902990451364,-306.2712031289563,1.4691877483000666,-0.004579478275623032,4.796491326571777,-3.3273035782717106,299400.8777861716,26349.150305051124
388.90000000001993,13460.744736999968,36084.20404743508,27.299470235396452,-293.4610513098039,1.4687325183919189,-0.0045522990814765565,4.805147894446415,-3.3364153760544966,298247.6139922263,25195.88651110581
389.00000000001995,13463.624035509849,36056.14503599719,28.79298509881227,-280.5901143788866,1.4682798992945714,-0.004526190973476098,4.814646878795576,-3.3463669795010045,297093.6420683982,24041.914587277686
389.10000000002,13466.653989241226,36029.37909566741,30.29953731377248,-267.65940329778175,1.467829784256739,-0.004501150378324983,4.825110958373317,-3.3572811741165784,295939.08994437475,22887.36246325425
389.20000000002,13469.835935807785,36003.912448665455,31.819465665596766,-254.6664700196166,1.4673820683681345,-0.00447715888604522,4.836690453133066,-3.3693083847649317,294783.79807425756,21732.07059313706
389.30000000002,13473.17124149397,35979.75151167505,33.35305686184401,-241.60936990403036,1.466936647433091,-0.004454209350435558,4.849567361971301,-3.3826307145382106,293627.6511016013,20575.92362048081
