time[s],x[m],y[m],vx[m/s],vy[m/s],theta[rad],theta_dot[rad/s],gamma[rad],alpha[rad],mass[kg],mass_propellant[kg]
379.9000000000179,13673.174316061164,43302.16002785376,-59.76658104520166,-1268.9724333982847,1.5347254829376629,-0.011302464785729898,4.665325351898209,-3.1305998689605463,401300.8025908591,128249.07510973862
380.0000000000179,13667.235115886697,43176.19232513658,-59.39200174466845,-1259.6770271717776,1.5335959902588532,-0.011294926788097048,4.665275276002061,-3.1316792857432074,400156.12119437475,127104.39371325425
380.1000000000179,13661.334818964137,43051.157001900596,-59.002969225594505,-1250.3532323598752,1.5324675623187713,-0.011284279400819384,4.665234920175321,-3.132767357856549,399011.4838652732,125959.75638415269
380.20000000001795,13655.474858740134,42927.056910233594,-58.599602240020445,-1241.000916670002,1.531340472983862,-0.011270893349092623,4.665204400115924,-3.1338639271320616,397866.89255667944,124815.16507555894
380.300000000018,13649.65665824814,42803.89491557725,-58.18200491993659,-1231.6199465634654,1.5302149628719892,-0.011255101118727049,4.665183848207557,-3.134968885335568,396722.3493437888,123670.62186266831
380.400000000018,13643.881631444501,42681.67389705169,-57.750268036385684,-1222.2101852556011,1.5290912427808665,-0.011237200911227587,4.665173413094787,-3.1360821703139203,395577.8561797263,122526.12869860581
380.500000000018,13638.151184406106,42560.396747362676,-57.30447038394961,-1212.7714968901375,1.5279694967603605,-0.01121746020506011,4.665173259381741,-3.1372037626213807,394433.41501761694,121381.68753649644
380.60000000001804,13632.466716440487,42440.06637321826,-56.84467965618498,-1203.3037414441433,1.526849884868243,-0.011196118921174572,4.6651835673821305,-3.1383336825138874,393289.0278105857,120237.30032946519
380.70000000001806,13626.829621084866,42320.68569545041,-56.370953556221544,-1193.8067776784526,1.5257325456394955,-0.0111733922874765,4.665204532985058,-3.1394719873455625,392144.6961455466,119092.96866442612
380.8000000000181,13621.24128702213,42202.25764926196,-55.88334062736066,-1184.280461884485,1.5246175983005674,-0.011149473389280025,4.665236367589576,-3.1406187692890084,391000.4217314841,117948.69425036362
380.9000000000181,13615.703098904398,42084.78518421154,-55.38188117732902,-1174.7246505042178,1.5235051447538648,-0.011124535467025784,4.665279298118471,-3.141774153364606,389856.2065215232,116804.47904040269
381.00000000001813,13610.216438116613,41968.271264477204,-54.86660787784456,-1165.1391973433983,1.5223952713566862,-0.011098733971785645,4.665333567098868,-3.142938295742182,388712.05185843725,115660.32437731675
381.10000000001816,13604.78268346278,41852.71886885543,-54.33754653832909,-1155.5239562177012,1.5212880505166324,-0.01107220840053733,4.665399432824662,-3.14411138230803,387567.9596953513,114516.23221423081
381.2000000000182,13599.403211809295,41738.13099110404,-53.794716534848604,-1145.8787775139217,1.520183542121465,-0.011045083951674266,4.66547716958474,-3.1452936274632752,386423.93161917944,113372.20413805894
381.3000000000182,13594.079398665352,41624.510640069806,-53.23813143943079,-1136.2035103423473,1.5190817948213957,-0.011017473000692285,4.665567067965574,-3.146485273144178,385279.9690947654,112228.24161364487
381.4000000000182,13588.812618711203,41511.860839737674,-52.66779954149261,-1126.4980033212878,1.5179828471789416,-0.010989476424541265,4.6656694352149675,-3.147686588036026,384136.0739531638,111084.34647204331
381.50000000001825,13583.604246286051,41400.18462935681,-52.08372425151954,-1116.7621038086738,1.5168867286987513,-0.010961184801902564,4.665784595672554,-3.148897866973803,382992.2476592185,109940.520178098
381.60000000001827,13578.45565585449,41289.48506386101,-51.485904315622655,-1106.9956549580318,1.5157934607533188,-0.010932679454325182,4.665912891310716,-3.150119430557398,381848.49143363256,108796.76395251206
381.7000000000183,13573.368222393216,41179.76521349117,-50.87433461274866,-1097.1985036983558,1.5147030574107407,-0.010904033425779846,4.666054682245881,-3.15135162483514,380704.8073516013,107653.07987048081
381.8000000000183,13568.343321805647,41071.02816449666,-50.24900587568958,-1087.3704899451075,1.5136155261792363,-0.010875312315044176,4.666210347471644,-3.1525948212924075,379561.1967558982,106509.46927477769
381.90000000001834,13563.382331265146,40963.27701905006,-49.60990540501369,-1077.5114544660373,1.5125308686740764,-0.01084657505159988,4.666380285526389,-3.153849416852313,378417.66123343725,105365.93375231675
382.00000000001836,13558.486629464458,40856.51489422178,-48.95701800688482,-1067.6212482827873,1.5114490811979093,-0.01081787476166959,4.6665649150572355,-3.155115833859326,377274.20334769506,104222.47586657456
382.1000000000184,13553.657596310026,40750.744913735594,-48.29033154432471,-1057.6998048618673,1.5103701551177982,-0.01078926080111239,4.666764673766743,-3.1563945186489453,376130.8348174216,103079.10733630112
382.2000000000184,13548.896613755916,40645.970217283044,-47.609825541099426,-1047.746964525502,1.5092940773884123,-0.010760777293858494,4.666980022636193,-3.157685945247781,374987.55759574194,101935.83011462144
382.30000000001843,13544.205066112187,40542.19396120376,-46.91547643730039,-1037.7625607928053,1.5082208310020284,-0.01073246386383843,4.66721144599302,-3.1589906149909917,373844.3729033591,100792.64542223862
382.40000000001845,13539.584340261472,40439.41931799122,-46.20725850715635,-1027.7464321254297,1.50715039538661,-0.010704356154182587,4.66745945244639,-3.16030905705978,372701.2825713279,99649.55509020737
382.5000000000185,13535.035825902447,40337.64947651805,-45.48514359024725,-1017.6984147317077,1.5060827467636542,-0.010676486229559837,4.667724576207426,-3.1616418294437723,371558.28806449194,98506.56058337144
382.6000000000185,13530.56092261227,40236.887743064406,-44.74903290177047,-1007.6173345364375,1.505017858884758,-0.01064887878896146,4.668007401762572,-3.162989542877814,370415.2868437888,97363.55936266831
382.7000000000185,13526.16103125011,40137.13740607066,-43.99891362159642,-997.5033699375033,1.5039557030158899,-0.010621558688682567,4.668308515753206,-3.164352812737316,369272.31748343725,96220.59000231675
382.80000000001854,13521.83755661391,40038.40177370763,-43.23474636201479,-987.3563236302952,1.5028962482758192,-0.010594547400706297,4.6686285425657195,-3.1657322942899,368129.3796172263,95077.65213610581
382.90000000001857,13517.591908312492,39940.68418337599,-42.45648301416884,-977.1759033163678,1.501839461911807,-0.01056786364012315,4.668968141345879,-3.1671286794340716,366986.46299124975,93934.73551012925
383.0000000000186,13513.4255038749,39843.98804079679,-41.66404437591965,-966.9614257920265,1.500785309761657,-0.010541521501499763,4.669328018200409,-3.1685427084387525,365843.518167031,92791.7906859105
383.1000000000186,13509.339766820078,39748.3167859177,-40.85737054822233,-956.7125487908831,1.499733756599487,-0.0105155316217006,4.669708909815062,-3.1699751532155753,364700.5309844138,91648.80350329331
383.20000000001863,13505.33612538082,39653.67386961251,-40.036414392588476,-946.4291630518577,1.4986847665054663,-0.01048990094020756,4.670111586883171,-3.1714268203777047,363557.5110869529,90505.78360583237
383.30000000001866,13501.416019202277,39560.06284365247,-39.201061785424685,-936.1102596003833,1.4976383030807892,-0.010464634246772046,4.670536890259051,-3.1728985871782616,362414.3774199607,89362.64993884019
383.4000000000187,13497.580898330825,39467.4873439924,-38.351208714517476,-925.7549966007095,1.4965943293147943,-0.010439737659948316,4.670985701906591,-3.1743913725917965,361271.0671172263,88219.33963610581
383.5000000000187,13493.832219067835,39375.951032542805,-37.48679262989958,-915.3631144958946,1.49555280748393,-0.010415218308644577,4.671458931737839,-3.1759061242539093,360127.5766387107,87075.84915759019
383.6000000000187,13490.171444168773,39285.457597606975,-36.60774899061983,-904.9343493582875,1.4945136992657186,-0.010391082182113983,4.671957539956847,-3.1774438406911285,358983.90244437475,85932.17496325425
383.70000000001875,13486.600041934793,39196.01073611991,-35.71402233980297,-894.4686148706382,1.4934769661807454,-0.010367330849731857,4.67248253621144,-3.1790055700306947,357840.05881644506,84788.33133532456
383.80000000001877,13483.119479615225,39107.61406710785,-34.80562319568562,-883.9666901206264,1.4924425696738892,-0.010343965068561382,4.6730349487856255,-3.1805923791117365,356696.1468291404,83644.41934801987
383.9000000000188,13479.731229625477,39020.27121198478,-33.88249989747685,-873.4285512307122,1.4914104712831888,-0.010320983907004384,4.673615895810311,-3.1822054245271225,355552.186135781,82500.4586546605
384.0000000000188,13476.43677594721,38933.98587204406,-32.94453678267733,-862.8533994071917,1.49038063288293,-0.010298384002587023,4.674226597139989,-3.183845964257059,354408.1199736716,81356.39249255112
384.10000000001884,13473.23760825541,38848.76175293486,-31.991676918007013,-852.2411910920445,1.4893530166126232,-0.010276162703069086,4.674868307591567,-3.185515290978944,353263.96689749975,80212.23941637925
384.20000000001886,13470.13521102705,38764.60243249521,-31.023972283579816,-841.5932043965028,1.4883275847136765,-0.010254318989466259,4.67554228218143,-3.1872146974677538,352119.87607718725,79068.14859606675
384.3000000000189,13467.13107574993,38681.511510339595,-30.041352771207414,-830.9092215561348,1.4873042997801844,-0.010232849334921966,4.676249926275834,-3.1889456264956495,350975.8473906638,77924.11990954331
384.4000000000189,13464.226698944349,38599.49258363418,-29.04376805580925,-820.189267054131,1.486283124700088,-0.010211750800964666,4.67699271441876,-3.190709589718672,349831.90525199194,76780.17777087144
384.50000000001893,13461.423578588034,38518.54920506845,-28.031203563145333,-809.4337856573115,1.4852640226158058,-0.01019102084282306,4.67777218237622,-3.192508159760414,348688.1148467185,75636.387365598
384.60000000001895,13458.723216262195,38438.68490958349,-27.003623258392185,-798.6429548495306,1.4842469568891314,-0.010170657266744368,4.678589972235914,-3.1943430153467824,347544.51462699194,74492.78714587144
384.700000000019,13456.127117180624,38359.90321574184,-25.96099081570247,-787.8169384165132,1.483231891032721,-0.010150658564106303,4.679447825390357,-3.1962159343576357,346401.14170218725,73349.41422106675
384.800000000019,13453.636796548784,38282.2076982137,-24.90320631839786,-776.9551752813946,1.4822187887348046,-0.010131022979163358,4.680347642278157,-3.1981288535433525,345257.9625029685,72206.235021848
384.900000000019,13451.253789500168,38205.60209966942,-23.83007048616088,-766.0559854427664,1.4812076136560315,-0.01011175078773172,4.681291529534049,-3.200083915878018,344114.8367705466,71063.10928942612
385.00000000001904,13448.979633091121,38130.09012275186,-22.7415640904685,-755.1197691755643,1.4801983295730514,-0.010092840829799818,4.6822815812698835,-3.2020832516968323,342971.8256621482,69920.09818102769
385.10000000001907,13446.81586786837,38055.675448917544,-21.63765222750754,-744.1467383432131,1.4791909003400878,-0.010074292329635451,4.683320039891689,-3.2041291395516014,341828.97178031225,68777.24429919175
385.2000000000191,13444.764046118156,37982.36182630913,-20.51821750214217,-733.136226084206,1.4781852901052137,-0.010056102348741656,4.684409374130387,-3.2062240840251732,340686.23362113256,67634.50614001206
385.3000000000191,13442.82574491349,37910.153205434486,-19.383012046659374,-722.0862087463878,1.477181463501794,-0.010038266034197676,4.685552352924062,-3.208370889422268,339543.44162894506,66491.71414782456
385.40000000001913,13441.002552521719,37839.05359034507,-18.231923917710876,-710.996150894138,1.4761793853838663,-0.010020781179276862,4.686751810167966,-3.2105724247840994,338400.5696807029,65348.842199582374
385.50000000001916,13439.296073528214,37769.067090035845,-17.064789935045745,-699.8650030922513,1.4751790208780058,-0.010003645058603933,4.688010837134615,-3.2128318162566094,337257.5434355857,64205.815954465186
385.6000000000192,13437.70792695603,37700.197895043144,-15.881465721840353,-688.6919499269812,1.4741803353875165,-0.00998685490489289,4.689332733715482,-3.215152398327966,336114.3121123435,63062.584631223
385.7000000000192,13436.239741105424,37632.45022247782,-14.681858506058752,-677.4767256532439,1.473183294494542,-0.009970408929745354,4.6907209877318055,-3.2175376932372632,334970.87717582006,61919.14969469956
385.8000000000192,13434.893156879178,37565.82834895568,-13.465842262461663,-666.2187352214116,1.4721878639510704,-0.009954305434716981,4.692179388209055,-3.219991524257984,333827.2098174216,60775.482336301124
385.90000000001925,13433.669831111158,37500.33664222799,-12.23325768020791,-654.9170672769283,1.4711940096728247,-0.009938542782457994,4.693712058028633,-3.2225180483558082,332683.2524199607,59631.524938840186
386.00000000001927,13432.571433673364,37435.97952861526,-10.983974377945104,-643.5711361272997,1.4702016977898398,-0.009923118829848775,4.695323410722441,-3.2251217129326015,331538.9788603904,58487.251379269874
386.1000000000193,13431.599644987347,37372.761462562456,-9.71788686015657,-632.1806605280246,1.4692108949472553,-0.009908028425844173,4.697018181918125,-3.2278072869708696,330394.391213906,57342.6637327855
386.2000000000193,13430.756153530618,37310.686901565365,-8.434914567300162,-620.7456099708883,1.468221568246954,-0.009893267003014742,4.6988014570279955,-3.2305798887810413,329249.51572562475,56197.78824450425
386.30000000001934,13430.042658554297,37249.76033455378,-7.134949763199826,-609.2656701158817,1.4672336850433403,-0.009878832036136079,4.700678779113824,-3.2334450940704835,328104.3520293357,55052.624548215186
386.40000000001936,13429.460872192309,37189.98630053679,-5.8178636198905105,-597.7403401699295,1.4662472129731345,-0.009864720702058447,4.702656192542655,-3.2364089795695206,326958.8831572654,53907.155676144874
386.5000000000194,13429.01252033032,37131.36939530182,-4.483518619897422,-586.1690523496208,1.465262119933471,-0.0098509303966361,4.704740280459181,-3.23947816052571,325813.0864043357,52761.358923215186
386.6000000000194,13428.699339515952,37073.91424084448,-3.1318081436758405,-574.5515445733938,1.46427837403316,-0.009837459003110966,4.706938160251404,-3.242659786218244,324666.96787406225,51615.24039294175
386.70000000001943,13428.523072993043,37017.625446435566,-1.7626652290973153,-562.8879440891321,1.4632959436513102,-0.009824303818497646,4.709257523251837,-3.245961579600527,323520.5690703513,50468.84158923081
386.80000000001945,13428.485477006228,36962.507663560114,-0.3759598681396519,-551.1778287545419,1.4623147977024658,-0.009811459488445494,4.71170687782138,-3.2493920801189144,322373.881448281,49322.1539671605
386.9000000000195,13428.588319155864,36908.56556920116,1.0284214963616192,-539.4209435895693,1.4613349056104235,-0.009798920920423785,4.714295506748808,-3.2529606011383847,321226.91220999975,48175.18472887925
387.0000000000195,13428.833377919233,36855.80385983741,2.4505876336795516,-527.6170936374335,1.460356237335276,-0.009786682751474662,4.717033579738272,-3.2566773424029964,320079.67380667944,47027.946325558936
387.1000000000195,13429.222448407912,36804.227302916115,3.890704886803855,-515.7655692129654,1.4593787633155286,-0.009774740197473946,4.719932390261439,-3.2605536269459106,318932.1331572654,45880.405676144874
387.20000000001954,13429.757336891345,36753.84068956041,5.348884834326314,-503.86613355701104,1.4584024541907803,-0.009763091247483686,4.723004267987415,-3.2646018137966344,317784.30002738256,44732.57254626206
387.30000000001957,13430.439880742058,36704.64900764758,6.8254385071238985,-491.91681912833246,1.4574272809908653,-0.009751731999151357,4.726263278394524,-3.2688359974036585,316636.0306182029,43584.303137082374
387.4000000000196,13431.271931012952,36656.65728559555,8.320502708942529,-479.9172205202699,1.4564532149498441,-0.009740660410212267,4.729724614182297,-3.2732713992324527,315487.3217558982,42435.594274777686
387.5000000000196,13432.25534800462,36609.87055370706,9.834169916676892,-467.8673188849599,1.455480227411787,-0.00972987538057174,4.733405028404864,-3.277924800993077,314338.20517874975,41286.47769762925
387.60000000001963,13433.392000228494,36564.29383706148,11.36652223873585,-455.76716645574896,1.4545082896837709,-0.009719377280161087,4.737323129683915,-3.2828148400001442,313188.7183623435,40136.990881223
387.70000000001966,13434.68377020802,36519.93220454252,12.91769979525541,-443.61632518954667,1.4535373730703116,-0.009709166134591886,4.741499835544491,-3.2879624624741792,312038.856057656,38987.1285765355
387.8000000000197,13436.132554660082,36476.79076909648,14.487844520625032,-431.4143544604248,1.4525674488660734,-0.009699242042382568,4.745958567862657,-3.293391118996584,310888.6128935935,37836.885412473
387.9000000000197,13437.740261201467,36434.87465798899,16.07706541385133,-419.1611110748928,1.4515984883991306,-0.009689604669427289,4.750725524766587,-3.299127036367456,309738.00998832006,36686.28250719956
388.0000000000197,13439.508803953615,36394.18897340624,17.685427521485238,-406.8568458274721,1.4506304631580993,-0.009680252410313533,4.755830061485292,-3.3051995983271927,308587.1028838279,35535.375402707374
388.10000000001975,13441.4401166505,36354.73889948382,19.313126968843086,-394.5007392242269,1.4496633448809815,-0.00967118277117919,4.761305796220147,-3.311642451339165,307435.854104531,34384.1266234105
388.20000000001977,13443.536156572494,36316.5297323713,20.960399219944854,-382.09167112518327,1.448697105535261,-0.00966239345720327,4.767191043295577,-3.318493937760316,306284.2010283591,33232.473547238624
388.3000000000198,13445.798909789148,36279.56691825081,22.627532166536977,-369.6281412049074,1.4477317173807382,-0.00965388154522869,4.773529698040898,-3.32579798066016,305132.05002738256,32080.32254626206
388.4000000000198,13448.23040576054,36243.85614982883,24.314959713923855,-357.10768421983306,1.4467671524481847,-0.00964564932553618,4.780372644099428,-3.333605491651243,303979.21897269506,30927.49149157456
388.50000000001984,13450.83270769549,36209.40324183809,26.023019349505145,-344.52907990741227,1.4458033801222785,-0.009637723259062283,4.78777797238274,-3.3419745922604616,302825.6120391013,29773.88455798081
388.60000000001986,13453.607914988586,36176.214199647875,27.75207293095745,-331.8904219021066,1.4448403701512489,-0.009630099710294994,4.795813087481175,-3.350972717329926,301671.1088652732,28619.381384152686
388.7000000000199,13456.558146055324,36144.29507795958,29.502310667381977,-319.1912168829531,1.4438780926582806,-0.009622774929682193,4.804555444956614,-3.3606773522983335,300515.7107939841,27463.983312863624
388.8000000000199,13459.685532854144,36113.651935395406,31.273867988205254,-306.4314256416803,1.4429165181564394,-0.009615745018412492,4.814095127936223,-3.371178609779784,299359.45798636694,26307.730505246436
388.90000000001993,13462.992229473499,36084.29090193238,33.06696619355454,-293.61033463027377,1.4419556174528136,-0.009609007036257144,4.824538359529888,-3.3825827420770747,298202.334573281,25150.6070921605
389.00000000001995,13466.480422504148,36056.218254422914,34.881930306489735,-280.7264750946437,1.440995361717399,-0.009602557354147126,4.836011288941681,-3.395015927224282,297044.26181937475,23992.53433825425
389.10000000002,13470.152321640064,36029.440348659984,36.71899135915255,-267.77905762931636,1.4400357220990494,-0.009596396183495271,4.848663305768834,-3.408627583669785,295885.21994925756,22833.49246813706
389.20000000002,13474.010144863676,36003.9635090496,38.578232236127654,-254.768396103826,1.4390766712302707,-0.009590508687786794,4.862672002022104,-3.4235953307918336,294725.2817168357,21673.554235715186
389.30000000002,13478.05612742644,35979.79409742131,40.45982562764165,-241.69411628286102,1.4381181825537883,-0.009584886764824052,4.878252014288959,-3.440133831735171,293564.4625029685,20512.735021848
