time[s],x[m],y[m],vx[m/s],vy[m/s],theta[rad],theta_dot[rad/s],gamma[rad],alpha[rad],mass[kg],mass_propellant[kg]
430.4000000000293,17680.257176294144,51168.185437324406,-59.27940127944231,-1518.1594270933151,1.4352170741151675,-0.009065004637764159,4.673361918545697,-3.2381448444305296,1144082.8064035082,481679.23349342705
430.50000000002933,17674.421103729528,51016.942251776265,-58.360725646147166,-1512.4318554813844,1.4343246845555326,-0.008923895596349027,4.67382077300214,-3.2394960884466073,1141935.6193917894,479532.0464817083
430.60000000002935,17668.677230079436,50866.26812939556,-57.43873650092155,-1506.7412238070692,1.4334519481648815,-0.008727363906512065,4.674286261712712,-3.240834313547831,1139803.9018624926,477400.3289524114
430.7000000000294,17663.0258313933,50716.159356236865,-56.51398686137035,-1501.0877315869807,1.4326035665919983,-0.008483815728831594,4.674758063194791,-3.242154496602793,1137687.6655343676,475284.0926242864
430.8000000000294,17657.46712906142,50566.61219967604,-55.58702331878729,-1495.4715656082426,1.431783494634419,-0.008200719575792225,4.675235853814109,-3.24345235917969,1135586.918464055,473183.3455539739
430.9000000000294,17652.00129126457,50417.6229138452,-54.65837796851254,-1489.8928583083487,1.4309950241367941,-0.007884704976247926,4.675719312222945,-3.244724288086151,1133501.6511300707,471098.07821998955
431.00000000002944,17646.62843414362,50269.18774165896,-53.72857120949039,-1484.3517218624347,1.430240858931822,-0.007541652049721739,4.67620811851427,-3.2459672595824482,1131431.8486398363,469028.2757297552
431.10000000002947,17641.34862331834,50121.30291815765,-52.79810825279873,-1478.8482350131271,1.4295231818565666,-0.007176770752555699,4.676701956400537,-3.24717877454397,1129377.4853585863,466973.9124485052
431.2000000000295,17636.161875545822,49973.96467385222,-51.867477725181246,-1473.3824430543054,1.4288437146519088,-0.006794672046578267,4.677200514363066,-3.248356799711157,1127338.5250314379,464934.95212135674
431.3000000000295,17631.068160383955,49827.169237300404,-50.93715161865757,-1467.9543655181867,1.4282037714727642,-0.006399431791446161,4.677703486093913,-3.2494997146211486,1125314.9232247972,462911.3503147161
431.40000000002954,17626.067401812066,49680.91283676827,-50.00758571888822,-1462.5640053213497,1.4276043065994242,-0.005994648733400389,4.6782105706387105,-3.2506062640392863,1123306.6312326097,460903.0583225286
431.50000000002956,17621.159480388564,49535.19170505611,-49.07921423501181,-1457.2113171216254,1.4270459572555947,-0.005583493438294539,4.67872147555571,-3.2516755183001154,1121313.584113469,458910.011203388
431.6000000000296,17616.344234809232,49390.002079831094,-48.1524557933043,-1451.8962522501895,1.4265290815712468,-0.005168756843479692,4.679235914139767,-3.25270683256852,1119335.7170480394,456932.1441379583
431.7000000000296,17611.62146381704,49245.34020606714,-47.227709921933844,-1446.6187376394746,1.4260537926241663,-0.004752889470804231,4.67975360756507,-3.2536998149409038,1117372.9570382738,454969.3841281927
431.8000000000296,17606.990928362156,49101.202339979805,-46.30535454881355,-1441.3786608733872,1.4256199888598307,-0.004338037643355938,4.680274286552587,-3.254654297692756,1115425.2191232347,453021.6462131536
431.90000000002965,17602.452353187415,48957.58474893857,-45.385751747428145,-1436.1759104123646,1.4252273810349643,-0.003926078248664829,4.68079768857979,-3.2555703075448257,1113492.4187081957,451088.84579811455
432.0000000000297,17598.00542895803,48814.48371499241,-44.46924229383934,-1431.0103394615976,1.4248755164463924,-0.0035186458857178016,4.681323561092392,-3.2564480446459996,1111574.4600900316,449170.8871799505
432.1000000000297,17593.649814100307,48671.89553642357,-43.55614857722381,-1425.8817856884043,1.4245638004372472,-0.0031171600914529102,4.681851660205545,-3.257287859768298,1109671.2432931566,447267.6703830755
432.2000000000297,17589.385136558212,48529.81652880813,-42.64677542095349,-1420.7900761544522,1.4242915155103737,-0.0027228492687348797,4.6823817504863126,-3.258090234975939,1107782.6648019457,445379.09189186455
432.30000000002974,17585.210995783527,48388.24302772245,-41.74140774685195,-1415.7350108568337,1.4240578384531615,-0.002336770572121667,4.682913606499444,-3.258855768046282,1105908.6130441332,443505.04013405205
432.40000000002976,17581.12696431952,48247.17138885647,-40.84031464007866,-1410.71638865975,1.4238618556095537,-0.001959828436077053,4.68344701075588,-3.2595851551463264,1104048.976691594,441645.403781513
432.5000000000298,17577.13258962875,48106.597989915725,-39.94374690768529,-1405.7339894074792,1.4237025765019633,-0.001592791075903421,4.683981755293592,-3.260279178791629,1102203.637946477,439800.0650363958
432.6000000000298,17573.22739593455,47966.5192327882,-39.05193694196776,-1400.7875712751934,1.4235789457415098,-0.0012363076045354348,4.684517641988421,-3.260938696246911,1100372.473517766,437968.90060768486
432.70000000002983,17569.41088580694,47826.93154421742,-38.16510127611193,-1395.8768857078087,1.4234898536490082,-0.0008909209250156519,4.685054481290406,-3.2615646276413974,1098555.3576730394,436151.7847629583
432.80000000002985,17565.682541777063,47687.831376876224,-37.28344029878925,-1391.001673411969,1.423434145736109,-0.0005570791289919772,4.685592092570455,-3.2621579468343462,1096752.1617501879,434348.58884010674
432.9000000000299,17562.041827817786,47549.2152098003,-36.40713959278754,-1386.1616707592398,1.4234106310381016,-0.00023514698007415003,4.686130303506017,-3.2627196724679157,1094962.7561105394,432559.1832004583
433.0000000000299,17558.488190958135,47411.079549945156,-35.53636859651695,-1381.3565985514624,1.42341808958298,7.458544878277245e-05,4.686668951043198,-3.263250861460218,1093187.007087102,430783.4341770208
433.1000000000299,17555.02087401442,47273.41967249797,-34.673169437149056,-1376.5987744718275,1.4234552432791139,0.0003715369613381722,4.687206741016391,-3.2637514977372772,1091428.6494210863,429025.0765110052
433.20000000002995,17551.639034184213,47136.23039379363,-33.818398302081604,-1371.892787043422,1.4235208156255847,0.000655723464709097,4.687743067082625,-3.2642222514570403,1089689.0228341722,427285.4499240911
433.30000000002997,17548.341823178278,46999.50659439997,-32.97211005932806,-1367.2379939365896,1.4236135598962896,0.0009274427070471677,4.68827780111389,-3.2646642412176003,1087967.8571847582,425564.28427467705
433.40000000003,17545.128388475,46863.24321981046,-32.13434703276254,-1362.6337458951703,1.4237322590612083,0.0011869916491862036,4.688810823672642,-3.265078564611434,1086264.8812326097,423861.3083225286
433.50000000003,17541.99787438755,46727.4352802405,-31.305140874497372,-1358.079395699628,1.423875725583694,0.001434665224858314,4.689342022987092,-3.265466297403398,1084579.8265451097,422176.2536350286
433.60000000003004,17538.949423152546,46592.07785092902,-30.484512350052555,-1353.5742931147665,1.4240428011827762,0.0016707559908205071,4.689871295186757,-3.265828494003981,1082912.4248117113,420508.8519016302
433.70000000003006,17535.982176042926,46457.16607295056,-29.67247109618514,-1349.1177797845771,1.4242323565766524,0.0018955539387623965,4.6903985445685965,-3.266166187991944,1081262.4072335863,418858.8343235052
433.8000000000301,17533.09527416674,46322.69515227379,-28.869018761874965,-1344.7092067677345,1.424443291096691,0.0021093452003866906,4.690923681721445,-3.2664803906247544,1079629.5091622972,417225.9362522161
433.9000000000301,17530.287859446686,46188.66036034821,-28.074147200543766,-1340.3479192558123,1.4246745323425356,0.002312412458444294,4.69144662474481,-3.266772092402274,1078013.4659494066,415609.8930393255
434.0000000000301,17527.55907537143,46055.057033480596,-27.28784075255704,-1336.0332686760987,1.424925035748424,0.002505034058884292,4.691967297881318,-3.267042262132894,1076414.0163644457,414010.44345436455
434.10000000003015,17524.908067810262,45921.88057293815,-26.510075611700476,-1331.7646054244935,1.4251937841483227,0.0026874839989867766,4.692485631988732,-3.2672918478404096,1074830.9002755785,412427.32736549736
434.2000000000302,17522.333985652454,45789.12644416527,-25.740821578065137,-1327.541287728831,1.4254797872800995,0.0028600313177689204,4.693001563472674,-3.267521776192574,1073263.8613351488,410860.2884250677
434.3000000000302,17519.835981590986,45656.790177244155,-24.980040614688047,-1323.3626692111563,1.4257820813376783,0.0030229405757872304,4.693515035284829,-3.2677329539471507,1071712.643805852,409309.0708957708
434.4000000000302,17517.413253671126,45524.86764010382,-24.227279198587887,-1319.2253714034007,1.4260997492052234,0.0031766786754514717,4.694026267990379,-3.267926518785156,1070176.1701730394,407772.5972629583
434.50000000003024,17515.065066331295,45393.3551740072,-23.481873398293146,-1315.1246609662032,1.426431939617977,0.0033219041275347146,4.694535632215189,-3.2681036925972116,1068652.9622872972,406249.3893772161
434.60000000003026,17512.790687804885,45262.249167593705,-22.743785264086213,-1311.060064134932,1.4267778490124736,0.003459093944967255,4.695043089993348,-3.2682652409808743,1067142.828986516,404739.25607643486
434.7000000000303,17510.58939039313,45131.5460563201,-22.01297411755765,-1307.0311127361033,1.4271367174649034,0.0035886845242988643,4.69554860610662,-3.268411888641716,1065645.5811837816,403242.0082737005
434.8000000000303,17508.46045076518,45001.24232222932,-21.28939627948867,-1303.0373409077695,1.4275078250391928,0.003711075742893309,4.6960521482870625,-3.2685443232478697,1064161.0323556566,401757.4594455755
434.90000000003033,17506.403150260114,44871.33449386332,-20.573005050645648,-1299.078283659953,1.427890488513057,0.003826634738642737,4.696553687257496,-3.268663198744439,1062688.996955266,400285.42404518486
435.00000000003035,17504.41677504158,44741.81914527837,-19.863752185345454,-1295.1534858495033,1.4282840584366616,0.003935699236047264,4.697053195745617,-3.268769137308956,1061229.293464055,398825.7205539739
435.1000000000304,17502.50061633217,44612.692895721906,-19.161587094086652,-1291.262495564638,1.4286879165007553,0.004038580640937254,4.697550649037218,-3.268862732536463,1059781.742316594,397378.169406513
435.2000000000304,17500.653970662468,44483.95240952852,-18.466456697021677,-1287.4048619338237,1.4291014731527236,0.004135566519683845,4.698046025097748,-3.268944551945024,1058346.1655343676,395942.5926242864
435.3000000000304,17498.876139997195,44355.59439526385,-17.778306652709677,-1283.5801426467817,1.4295241654451727,0.004226922924490272,4.698539303733528,-3.2690151382883554,1056922.3883126879,394518.81540260674
435.40000000003045,17497.166431911082,44227.615605309176,-17.097080861126372,-1279.7878995467024,1.4299554551026206,0.0043128965744796,4.6990304669432055,-3.269075011840585,1055510.238410344,393106.665500263
435.50000000003047,17495.524159714154,44100.01283517738,-16.422721969300238,-1276.0277013179539,1.4303948267943034,0.004393716916828203,4.699519498570862,-3.269124671776559,1054109.5463937426,391705.9734836614
435.6000000000305,17493.94849848021,43972.781893571635,-15.756612339430855,-1272.3094160574672,1.4308418148594755,0.004469880651720062,4.700005352090718,-3.269163537231243,1052723.1898263597,390319.6169162786
435.7000000000305,17492.438630334753,43845.91861751274,-15.098681454596706,-1268.6327605889537,1.431296015774694,0.004542009152184315,4.700488003922601,-3.269191988147907,1051351.031745305,388947.4588352239
435.80000000003054,17490.993749930814,43719.41891168723,-14.448804039393517,-1264.9970582550786,1.4317570815238465,0.004610657491527046,4.700967471019698,-3.2692103894958517,1049992.8199533129,387589.24704323174
435.90000000003056,17489.61306419553,43593.27874761507,-13.806857352820586,-1261.4016407215631,1.4322247130841483,0.004676315603018475,4.7014437702630225,-3.269219057178874,1048648.3068917894,386244.7339817083
436.0000000000306,17488.29579207313,43467.494162763425,-13.172721223983945,-1257.8458485164463,1.432698654675602,0.004739415914537201,4.7019169183977585,-3.2692182637221565,1047317.248908391,384913.67599830986
436.1000000000306,17487.041164173057,43342.06125896397,-12.546279000735677,-1254.3290379945154,1.4331786886399844,0.004800339643824423,4.702386931291338,-3.2692082426513536,1045999.40869843,383595.8357883489
436.2000000000306,17485.848422526135,43216.97620156752,-11.927416469217494,-1250.8505739644977,1.433664630923426,0.004859422834416603,4.702853824676848,-3.269189193753422,1044694.5526193285,382290.97970924736
436.30000000003065,17484.71677340081,43092.23488056036,-11.316491253229247,-1247.4132100715779,1.43415632116099,0.0049169023756404475,4.703317262427945,-3.2691609412669553,1043403.4421456957,380999.86923561455
436.4000000000307,17483.645408054326,42967.83305810925,-10.713653464846413,-1244.0182245110768,1.4346536206790528,0.004972995180627464,4.703777057832166,-3.2691234371531133,1042126.4029611254,379722.83005104424
436.5000000000307,17482.633530772244,42843.7665708445,-10.118772820817693,-1240.6648726475246,1.4351564123393485,0.005027916602957628,4.7042332336646995,-3.269076821325351,1040863.1682199144,378459.5953098333
436.6000000000307,17481.680358701677,42720.031329442034,-9.531720705662618,-1237.352414024635,1.43566459798726,0.005081856479113474,4.7046858134749865,-3.2690212154877267,1039613.4740060472,377209.9010959661
436.70000000003074,17480.785207254132,42596.62395334613,-8.951514475436595,-1234.0737609591051,1.4361780806246747,0.005134826374146011,4.705135477580815,-3.2689573969561403,1038375.2080148363,375971.6351047552
436.80000000003076,17479.94743450201,42473.54137265602,-8.377727521225054,-1230.82580690106,1.43669675090719,0.0051867028251538095,4.705582494772581,-3.2688857438653907,1037147.4277413988,374743.8548313177
436.9000000000308,17479.16640466959,42350.780560778985,-7.810298324191653,-1227.6081187703526,1.437220486240082,0.005237353328919777,4.706026858119138,-3.268806371879056,1035929.9733956957,373526.40048561455
437.0000000000308,17478.441488095086,42228.338533114926,-7.2491657450484634,-1224.4202766406152,1.4377491530042705,0.005286667641886265,4.706468561403201,-3.2687194083989306,1034722.6894601488,372319.1165500677
437.10000000003083,17477.772061359065,42106.21234703262,-6.694267360214252,-1221.2618608230534,1.4382826085396017,0.005334555353311594,4.706907600403408,-3.268624991863806,1033525.4215158129,371121.84860573174
437.20000000003085,17477.157507350847,41984.39910145921,-6.145540082175821,-1218.1324557340868,1.4388207028826951,0.005380943430933922,4.707343972418453,-3.2685232695357582,1032338.0170968676,369934.4441867864
437.3000000000309,17476.597215221842,41862.89593569627,-5.602921290045637,-1215.0316576293962,1.4393632802637373,0.005425773810421769,4.7077776753696705,-3.2684143951059332,1031160.3278878832,368756.75497780205
437.4000000000309,17476.090580510077,41741.70002957172,-5.066347117653221,-1211.9590612455327,1.4399101804419203,0.005469001781829953,4.708208709145576,-3.2682985287036557,1029992.2060617113,367588.6331516302
437.5000000000309,17475.63700511738,41620.808602550314,-4.535753926972214,-1208.9142702140523,1.440461239855317,0.00551059413396573,4.708637074434249,-3.2681758345789325,1028833.5069650316,366429.9340549505
437.60000000003095,17475.23589732026,41500.21891314443,-4.011077971202268,-1205.8968940588247,1.4410162926404684,0.005550527851513747,4.709062772979598,-3.2680464803391294,1027684.0882638597,365280.5153537786
437.70000000003097,17474.886671772547,41379.92825831876,-3.4922554771462813,-1202.9065482567025,1.4415751715091318,0.00558878868663355,4.709485807506621,-3.267910635997489,1026543.8106759691,364140.237765888
437.800000000031,17474.58874953577,41259.93397315912,-2.9792223677703538,-1199.9428515963955,1.4421377085062763,0.005625369971445274,4.709906181939573,-3.2677684734332964,1025412.5358956957,363008.96298561455
437.900000000031,17474.341611823696,41140.23384764445,-2.4713771207368938,-1197.0012551466878,1.4427037310419037,0.005660225356274706,4.710324342942993,-3.2676206119010893,1024288.9293283129,361885.35641823174
438.00000000003104,17474.14488688886,41020.82681282981,-1.9672493483922444,-1194.0703481464197,1.4432730465228354,0.005693154809315578,4.710741466424107,-3.2674684199012716,1023169.6937326097,360766.1208225286
438.10000000003106,17473.99820336378,40901.71181461994,-1.4668352507891531,-1191.1499820986355,1.4438454353429677,0.005723888201324004,4.711157536375647,-3.2673121010326795,1022054.7753976488,359651.2024875677
438.2000000000311,17473.901190485132,40782.88781362378,-0.9701287864548345,-1188.2400099616077,1.444420654358519,0.005752190155513218,4.7115725387880705,-3.2671518844295515,1020944.1207345629,358540.54782448174
438.3000000000311,17473.853478268615,40664.35378469837,-0.4771221651598909,-1185.3402892541528,1.444998439981762,0.005777856232429651,4.711986461256877,-3.2669880212751146,1019837.6779855394,357434.1050754583
438.4000000000311,17473.854697813535,40546.1087175805,0.012195449206052977,-1182.450671178636,1.4455785109465094,0.005800709647474605,4.712399294091217,-3.2668207831447074,1018735.393439641,356331.82052955986
438.50000000003115,17473.904481502803,40428.151616783056,0.49783689267529224,-1179.5710079744515,1.4461605707404732,0.0058205979396387985,4.7128110294684245,-3.266650458727951,1017637.2141183519,355233.6412082708
438.6000000000312,17474.002463098404,40310.48150071117,0.9798159560256794,-1176.7011607188508,1.4467443097939872,0.005837390535138925,4.713221660560659,-3.2664773507666722,1016543.0893624926,354139.5164524114
438.7000000000312,17474.148278063574,40193.09740264869,1.4581496516928074,-1173.8409806248335,1.4473294074153327,0.005850976213456074,4.713631183481832,-3.2663017760664994,1015452.9660714769,353049.3931613958
438.8000000000312,17474.341563642654,40075.998369874455,1.932855790792166,-1170.990327742356,1.4479155335038676,0.005861260885349876,4.714039595244288,-3.2661240617404204,1014366.793830266,351963.22092018486
438.90000000003124,17474.581959047267,39959.183463674315,2.4039540461331366,-1168.1490620013878,1.4485023500836935,0.0058681657982601245,4.714446894678969,-3.2659445445952753,1013284.522345891,350880.94943580986
439.00000000003126,17474.869105716953,39842.651760019966,2.871466696856024,-1165.3170365435064,1.4490895126516024,0.005871625679088693,4.714853083109654,-3.2657635704580517,1012206.0992501879,349802.52634010674
439.1000000000313,17475.202647284732,39726.4023478987,3.3354156778080286,-1162.494121212658,1.449676671376044,0.005871587244416604,4.715258161797597,-3.265581490421553,1011131.477424016,348727.90451393486
439.2000000000313,17475.582230012646,39610.43433152191,3.7958272791518306,-1159.6801637678893,1.4502634721573775,0.005868007813335513,4.715662136072044,-3.2653986639146666,1010060.6035226488,347657.0306125677
439.30000000003133,17476.007502708362,39494.7468283398,4.252726957179905,-1156.875031821113,1.4508495575657576,0.0058608540838004574,4.716065010797832,-3.2652154532320745,1008993.4299386644,346589.8570285833
439.40000000003135,17476.478124692203,39379.33903287841,4.706219838408542,-1154.0779546139122,1.4514345698399276,0.005850122741699101,4.716466862414059,-3.2650322925741313,1007929.7288888597,345526.1559787786
439.5000000000314,17476.99380104109,39264.21050507406,5.156763488872657,-1151.2852780434926,1.452018163131739,0.005835932918113631,4.716868086564107,-3.264849923432368,1006868.4599679613,344464.8870578802
439.6000000000314,17477.554239659392,39149.36081512682,5.604386183009446,-1148.496899472341,1.452600002932955,0.0058183980121602795,4.717268698999758,-3.264668696066803,1005809.5881417894,343406.0152317083
439.7000000000314,17478.15915139209,39034.78954397766,6.04911732698406,-1145.712711491555,1.4531797650650924,0.005797621321372018,4.717668716795556,-3.2644889517304634,1004753.0769113207,342349.50400123955
439.80000000003145,17478.80825003396,38920.496282918415,6.490986418684182,-1142.9326105924576,1.4537571347529004,0.005773696878079513,4.718068157418988,-3.2643110226660874,1003698.8912423754,341295.31833229424
