Time [s],Altitude [m],Velocity [m/s],Non-NominalThrottle,Propellant Mass [kg],Total Mass [kg]
0.0,5010.111899062692,-84.37169385143217,1.0,597706.8396110332,965719.7461329211
0.0037011671764143827,4972.944903205308,-81.17800447466502,1.0,595593.7532903099,963606.6598121978
0.007402334352828765,4937.184775391193,-77.96790573692519,1.0,593480.6669695866,961493.5734914745
0.011103501529243148,4902.838744189829,-74.7413224876089,1.0,591367.5806488633,959380.4871707512
0.01480466870565753,4869.914071275665,-72.28828621931711,0.8955225535264933,589475.2641911072,957488.1707129951
0.018505835882071914,4838.069997608237,-72.93366762228379,0.4848601665209465,588450.7128057682,956463.6193276561
0.022207003058486295,4805.941623758656,-74.2188142219713,0.4,587605.478277479,955618.3847993668
0.02590817023490068,4773.247123567806,-75.50125779416021,0.4,586760.2437491897,954773.1502710775
0.02960933741131506,4739.987687759819,-76.7809934818244,0.4,585915.0092209004,953927.9157427882
0.033310504587729446,4706.164509198418,-78.05801642556082,0.4,585069.7746926111,953082.6812144989
0.03701167176414383,4671.778782887968,-79.33232176350076,0.4,584224.5401643218,952237.4466862096
0.04071283894055821,4636.831705974558,-80.60390463121416,0.4,583379.3056360325,951392.2121579204
0.04441400611697259,4601.324477747132,-81.8727601616073,0.4,582534.0711077432,950546.9776296311
0.04811517329338697,4565.258299638662,-83.1388834848138,0.4,581688.8365794539,949701.7431013418
0.05181634046980136,4528.634375227369,-84.4022697280792,0.4,580843.6020511646,948856.5085730525
0.05551750764621574,4491.453910237995,-85.66291401563925,0.4,579998.3675228753,948011.2740447632
0.05921867482263012,4453.71811254313,-86.92081146859198,0.4,579153.132994586,947166.0395164739
0.0629198419990445,4415.428192164593,-88.17595720476392,0.4,578307.8984662967,946320.8049881846
0.06662100917545889,4376.585361274874,-89.4283463385703,0.4,577462.6639380074,945475.5704598953
0.07032217635187327,4337.1908341986355,-90.67797398086968,0.4,576617.4294097181,944630.335931606
0.07402334352828766,4297.245827414281,-91.9248352388131,0.4,575772.1948814288,943785.1014033167
0.07772451070470203,4256.751559555586,-93.16892521568778,0.4,574926.9603531396,942939.8668750274
0.08142567788111642,4215.709251413403,-94.41023901075572,0.4,574081.7258248503,942094.6323467381
0.0851268450575308,4174.120125937432,-95.64877171908729,0.4,573236.491296561,941249.3978184488
0.08882801223394518,4131.985408238069,-96.88451843139,0.4,572391.2567682717,940404.1632901595
0.09252917941035957,4089.3063255883253,-98.11747423383257,0.4,571546.0222399824,939558.9287618703
0.09623034658677394,4046.08410742583,-99.34763420786457,0.4,570700.7877116931,938713.694233581
0.09993151376318833,4002.319985354907,-100.57499343003181,0.4,569855.5531834038,937868.4597052917
0.10363268093960272,3958.0151931487358,-101.79954697178746,0.4,569010.3186551145,937023.2251770024
0.1073338481160171,3913.1709667515934,-103.02128989929942,0.4,568165.0841268252,936177.9906487131
0.11103501529243148,3867.7885442811853,-104.24021727325373,0.4,567319.8495985359,935332.7561204238
0.11473618246884586,3821.8691660310583,-105.45632414865463,0.4,566474.6150702466,934487.5215921345
0.11843734964526025,3775.4140744731035,-106.669605574621,0.4,565629.3805419573,933642.2870638452
0.12213851682167463,3728.4245142601503,-107.88005659417973,0.4,564784.146013668,932797.0525355559
0.125839683998089,3680.901732228648,-109.08767224405598,0.4,563938.9114853787,931951.8180072666
0.1295408511745034,3632.846977401444,-110.29244755446058,0.4,563093.6769570895,931106.5834789773
0.13324201835091778,3584.2615009906513,-111.49134943442681,0.40038861306063717,562247.6212558576,930260.5277777455
0.13694318552733215,3535.1478903304196,-112.690426440837,0.4,561402.3867275683,929415.2932494562
0.14064435270374653,3485.5060682749254,-113.88664815220514,0.4,560557.152199279,928570.0587211669
0.14434551988016092,3435.337292624435,-115.080009570475,0.4,559711.9176709898,927724.8241928776
0.1480466870565753,3384.6428233809334,-116.27050568997647,0.4,558866.6831427005,926879.5896645883
0.1517478542329897,3333.423922751478,-117.45813149719953,0.4,558021.4486144112,926034.355136299
0.15544902140940406,3281.681855151654,-118.64288197056646,0.4,557176.2140861219,925189.1206080097
0.15915018858581845,3229.4178872091247,-119.82475208020271,0.4,556330.9795578326,924343.8860797205
0.16285135576223284,3176.63328776729,-121.00373678770636,0.4,555485.7450295433,923498.6515514312
0.16655252293864722,3123.3293278890405,-122.1798310459164,0.4,554640.510501254,922653.4170231419
0.1702536901150616,3069.507280860618,-123.35302979868015,0.4,553795.2759729647,921808.1824948526
0.17395485729147597,3015.168422195574,-124.5233279806197,0.4,552950.0414446754,920962.9479665633
0.17765602446789036,2960.314029638836,-125.69072051689767,0.4,552104.8069163861,920117.713438274
0.18135719164430475,2904.945383170873,-126.85520232298258,0.4,551259.5723880968,919272.4789099847
0.18505835882071914,2849.063765011966,-128.01676830441363,0.4,550414.3378598075,918427.2443816954
0.18875952599713353,2792.670459626583,-129.1754133565654,0.4,549569.1033315182,917582.0098534061
0.1924606931735479,2735.7667537278558,-130.33113236441238,0.4,548723.868803229,916736.7753251168
0.19616186034996227,2678.353936282161,-131.48392020229352,0.4,547878.6342749397,915891.5407968275
0.19986302752637666,2620.433298513807,-132.633771733677,0.4,547033.3997466504,915046.3062685382
0.20356419470279105,2562.0061339098206,-133.7806818109253,0.4,546188.1652183611,914201.0717402489
0.20726536187920544,2503.0737382248394,-134.92464527506064,0.4,545342.9306900718,913355.8372119596
0.2109665290556198,2443.6374094861094,-136.06565695553107,0.4,544497.6961617825,912510.6026836704
0.2146676962320342,2383.6984479985817,-137.20371166997717,0.4,543652.4616334932,911665.3681553811
0.21836886340844858,2323.2581563501144,-138.3388042239996,0.4,542807.2271052039,910820.1336270918
0.22207003058486297,2262.317839416776,-139.4709294109275,0.4,541961.9925769146,909974.8990988025
0.22577119776127735,2200.8788043682525,-140.60008201158803,0.4,541116.7580486253,909129.6645705132
0.22947236493769171,2138.9423606733526,-141.72625679407676,0.4,540271.523520336,908284.4300422239
0.2331735321141061,2076.509820105618,-142.84944851352972,0.4,539426.2889920467,907439.1955139346
0.2368746992905205,2013.5824967490319,-143.9696519118964,0.4,538581.0544637574,906593.9609856453
0.24057586646693488,1950.161707003827,-145.08686171771433,0.4,537735.8199354681,905748.726457356
0.24427703364334927,1886.2487695923942,-146.20107264588518,0.4,536890.5854071788,904903.4919290667
0.24797820081976363,1821.84500556529,-147.31227939745247,0.4,536045.3508788896,904058.2574007774
0.251679367996178,1756.95173830734,-148.42047665938088,0.4,535200.1163506003,903213.0228724881
0.2553805351725924,1691.5702935438421,-149.52565910433745,0.4,534354.881822311,902367.7883441988
0.2590817023490068,1625.7019993468637,-150.62782139047448,0.4,533509.6472940217,901522.5538159095
0.2627828695254212,1559.3481861416365,-151.72695816121447,0.4,532664.4127657324,900677.3192876203
0.26648403670183557,1492.5101867130447,-152.82306404503703,0.4,531819.1782374431,899832.084759331
0.27018520387824996,1425.189336212208,-153.91613365526769,0.4,530973.9437091538,898986.8502310417
0.2738863710546643,1357.3869721631568,-155.006161589869,0.4,530128.7091808645,898141.6157027524
0.2775875382310787,1289.1044344695997,-155.84615734555115,0.43057463342032276,529218.8678129335,897231.7743348214
0.28128870540749307,1220.4518660542863,-156.7669270179378,0.42014905144810566,528331.0565996537,896343.9631215415
0.28498987258390746,1151.3936847961222,-157.65174575770024,0.4241742141269151,527434.7398701785,895447.6463920664
0.28869103976032184,1081.9457276198264,-158.517864653,0.4260575010943998,526534.4435927743,894547.3501146622
0.29239220693673623,1012.1162320871915,-159.36278684992,0.4282421888292226,525629.5308816027,893642.4374034905
0.2960933741131506,941.9145356615885,-160.18671659678787,0.4303943133202512,524720.0705456085,892732.9770674964
0.299794541289565,871.3498858319382,-160.9897074244431,0.43253248762021984,523806.09206274984,891818.9985846377
0.3034957084659794,800.4315065060242,-157.17253322409064,1.0,521693.00574202655,889705.9122639145
0.3071968756423938,731.194649634089,-153.33613359219942,1.0,519579.91942130326,887592.8259431911
0.3108980428188081,663.6477843069113,-149.48041314886422,1.0,517466.83310057997,885479.7396224679
0.3145992099952225,597.7994216315471,-145.6052759516032,1.0,515353.7467798567,883366.6533017445
0.3183003771716369,533.6581149791546,-141.71062548398933,1.0,513240.6604591334,881253.5669810213
0.3220015443480513,471.2324602378241,-137.79636464436678,1.0,511127.5741384101,879140.4806602979
0.32570271152446567,410.53109607038147,-133.86239573464007,1.0,509014.4878176868,877027.3943395747
0.32940387870088006,351.5627041771278,-133.73761153122396,0.5371468502249567,507879.45015625685,875892.3566781448
