t[s],x[m],y[m],vx[m/s],vy[m/s],mass[kg],tau[-]
442.60000000003214,26222.608034100085,51699.81622751899,-18.791480912653284,-1564.3849603088283,972881.4197654276,1.0
442.70000000003216,26220.7437159476,51543.8668795018,-18.643181524863287,-1559.4934801718464,971282.4682582192,1.0
442.8000000000322,26218.89365394582,51388.40823836575,-18.500620017785813,-1554.5864113605282,969683.5167510108,1.0
442.9000000000322,26217.057123831943,51233.44195226852,-18.36530113875051,-1549.6628609723473,968084.5652438024,1.0
443.00000000003223,26215.233271319867,51078.969742533794,-18.23852512074933,-1544.7220973472552,966485.613736594,1.0
443.10000000003225,26213.421088395877,50924.99339387831,-18.12182923990644,-1539.76348655488,964886.6622293856,1.0
443.2000000000323,26211.619420549887,50771.51472756055,-18.016678459886755,-1534.7866631776092,963287.7107221772,1.0
443.3000000000323,26209.826972332256,50618.53554155759,-17.924482176330883,-1529.7918600295939,961688.7592149688,1.0
443.4000000000323,26208.04229823777,50466.057723168065,-17.846740944824724,-1524.7781838952726,960089.8077077604,1.0
443.50000000003234,26206.2644328612,50314.0821960059,-17.778653765704703,-1519.7552716217103,958490.856200552,1.0
443.60000000003237,26204.491241760632,50162.609039314855,-17.7319110056854,-1514.731566910383,956891.9046933436,1.0
443.7000000000324,26202.72072075492,50011.638375090624,-17.705210057094586,-1509.706642242317,955292.9531861352,1.0
443.8000000000324,26200.950826417673,49861.17026717443,-17.698943372485495,-1504.6810791619541,953694.0016789268,1.0
443.90000000003243,26199.179514165826,49711.20478283556,-17.713122518475373,-1499.654843388712,952095.0501717184,1.0
444.00000000003246,26197.394429676973,49561.43164472346,-17.850844888540397,-1497.7313811209758,951317.6052300591,0.4862217135130995
444.1000000000325,26195.603980576932,49412.16087711679,-17.904491000419238,-1492.7076760667173,949718.6537228507,1.0
444.2000000000325,26193.792412776012,49263.034234024424,-18.11567800920887,-1491.2664309236734,949066.3964630303,0.4079281059369113
444.3000000000325,26191.972098580743,49114.409971937566,-18.20314195270187,-1486.2426208686024,947467.4449558218,1.0
444.40000000003255,26190.131325956532,48966.04579861425,-18.40772624209521,-1483.6417332331268,946508.1992945942,0.5999216717349618
444.50000000003257,26188.27944098426,48818.18472637567,-18.518849722728447,-1478.6107223857723,944909.2477873858,1.0
444.6000000000326,26186.39220064713,48670.29758768021,-18.872403371313574,-1478.8713869546361,944703.0147188877,0.1289801895606679
444.7000000000326,26184.49278382674,48522.91441430147,-18.9941682039066,-1473.831733787354,943104.0632116793,1.0
444.80000000003264,26182.58131742451,48376.036354480624,-19.114664022322994,-1468.7805982084894,941505.1117044709,1.0
444.90000000003266,26180.6410466789,48229.258104906934,-19.402707456111976,-1467.7824957369155,940970.8227588155,0.33414956191402145
445.0000000000327,26178.69020342372,48082.98710480637,-19.50843255177066,-1462.7100010056233,939371.8712516071,1.0
445.1000000000327,26176.724083762107,47937.06530109774,-19.66119661615411,-1459.2180370863477,938190.1143594859,0.7390823841708344
445.20000000003273,26174.743709412356,47791.458744492644,-19.803743497508666,-1456.0655660509735,937100.4079414743,0.6815131122482135
445.30000000003275,26172.754602580557,47646.250675652,-19.891068318008916,-1452.0806884064482,935797.4774026901,0.8148655746659151
445.4000000000328,26170.75380080281,47501.235165648905,-20.008017777465678,-1450.1551000309478,935034.6664080233,0.4770694991235459
445.5000000000328,26168.75349974195,47356.735278109416,-20.00301060859291,-1444.9988753949194,933435.7149008149,1.0
445.6000000000328,26166.747933779214,47212.32233284844,-20.055659627375398,-1444.1294526097718,932954.3662875544,0.30104015730964784
445.70000000003284,26164.74997853357,47068.42864788627,-19.979552456419977,-1438.9368496217048,931355.414780346,1.0
445.80000000003287,26162.759616197334,46924.86907642874,-19.90362336235506,-1435.5957145753425,930238.9111983142,0.6982723222051618
445.9000000000329,26160.781037555545,46781.65583255487,-19.78578641787097,-1432.132438738708,929088.7110590995,0.7193464805088398
446.0000000000329,26158.818144992492,46638.75787083291,-19.628925630516452,-1428.9796172196022,928016.7765813316,0.6703983660138465
446.10000000003294,26156.8750150572,46496.252067395355,-19.431299352898694,-1425.0580343755269,926744.3302125166,0.7958004749228349
446.20000000003296,26154.955987834655,46353.94526904129,-19.1902722254722,-1423.0679835406434,925967.5187471306,0.4858255312208839
446.300000000033,26153.062906162842,46212.156013845764,-18.93081671812173,-1417.8925519552633,924368.5672399222,1.0
446.400000000033,26151.203057997576,46070.41489858769,-18.59848165264543,-1417.411152580754,923975.0864460923,0.24608675876409414
446.500000000033,26149.374284638536,45929.19054657235,-18.287733590388008,-1412.2435201534188,922376.134938884,1.0
446.60000000003305,26147.579696163975,45788.395944196236,-17.945884745621868,-1407.946023761115,921000.9995654897,0.8600231884424684
446.70000000003307,26145.82574747311,45647.70147047188,-17.539486908662546,-1406.9447372435568,920470.1178165284,0.33201866758808224
446.8000000000331,26144.107049910086,45507.524526880436,-17.18697563025049,-1401.7694359144978,918871.16630932,1.0
446.9000000000331,26142.427229380715,45367.64094415324,-16.798205293707092,-1398.835827271954,917847.3441532614,0.6403084467809577
447.00000000003314,26140.783436304006,45228.20119626542,-16.437930767103,-1394.397478878148,916441.5408544237,0.8792032106665311
447.10000000003316,26139.17946145053,45088.82208414999,-16.039748534733718,-1393.7911211542769,916015.1001199014,0.266700229869276
447.2000000000332,26137.607341112744,44949.965143072084,-15.72120337786466,-1388.5694107790794,914416.148612693,1.0
447.3000000000332,26136.06576409028,44811.4828894651,-15.415770224635931,-1384.822536069836,913197.4401986672,0.7621922294275718
447.40000000003323,26134.551852799203,44673.234990181474,-15.139112910765844,-1382.4789928362593,912339.7026888848,0.5364374753803531
447.50000000003325,26133.060136360393,44535.51563222707,-14.917164388089292,-1377.1935795440304,910740.7511816764,1.0
447.6000000000333,26131.585341288923,44397.73353667086,-14.747950714697676,-1377.8209555621534,910644.8140912439,0.06000000000000001
447.7000000000333,26130.12364181097,44260.48423135566,-14.616994779533035,-1372.4930531520133,909045.8625840355,1.0
447.8000000000333,26128.66988162065,44123.77045641222,-14.537601903164324,-1367.1377494343749,907446.9110768271,1.0
447.90000000003334,26127.21154190679,43986.99637833236,-14.583397138640978,-1367.7407807985462,907350.9739863946,0.06000000000000001
448.00000000003337,26125.75028499767,43850.7565734762,-14.612569091204348,-1362.3980485615973,905752.0224791862,1.0
448.1000000000334,26124.280317059605,43715.05053333203,-14.699679380651746,-1357.0604014417245,904153.0709719778,1.0
448.2000000000334,26122.78081107274,43579.27966801615,-14.995059868663798,-1357.7086531588318,904057.1338815453,0.06000000000000001
448.30000000003344,26121.261990762516,43444.040622876506,-15.188203102236217,-1352.390451396428,902458.1823743369,1.0
448.40000000003346,26119.71955735013,43309.333236326434,-15.424334123865288,-1347.0738655007442,900859.2308671285,1.0
448.5000000000335,26118.12996794303,43174.557487168975,-15.895894071007655,-1347.7574915746063,900763.293776696,0.06000000000000001
448.6000000000335,26116.51084565517,43040.31285670632,-16.19122287858842,-1342.4463046265769,899164.3422694876,1.0
448.7000000000335,26114.861016270086,42906.600136397916,-16.49829385085733,-1337.1272030840162,897565.3907622792,1.0
448.80000000003355,26113.159142139255,42772.818206022595,-17.018741308327908,-1337.8193037532396,897469.4536718467,0.06000000000000001
448.9000000000336,26111.42790704598,42639.569822563164,-17.312350932718918,-1332.4838345942876,895870.5021646383,1.0
449.0000000000336,26109.670045440038,42506.85692300861,-17.57861605945359,-1327.1289955456077,894271.5506574298,1.0
449.1000000000336,26107.87069024923,42374.07719623192,-17.993551908069644,-1327.797267766863,894175.6135669973,0.06000000000000001
449.20000000003364,26106.053707133302,42241.836733992386,-18.169831159296884,-1322.4046223953392,892576.6620597889,1.0
449.30000000003366,26104.22429906948,42110.10165001835,-18.294080638214755,-1317.3508397403757,891068.7767312779,0.9430463161097786
449.4000000000337,26102.37712992421,41978.30458299081,-18.47169145270255,-1317.9706702753633,890972.8396408454,0.06000000000000001
449.5000000000337,26100.533244234215,41847.0541057267,-18.43885689995132,-1312.5047726410878,889373.888133637,1.0
449.60000000003373,26098.69833277581,41716.30696827162,-18.34911458403565,-1307.4713745507297,887888.2970938641,0.9291032486448985
449.70000000003375,26096.87422797422,41585.49902191539,-18.241048015908362,-1308.079463562318,887792.3600034316,0.06000000000000001
449.8000000000338,26095.074088960806,41455.23766489563,-18.001390134118743,-1302.61357019761,886193.4084962232,1.0
449.9000000000338,26093.304397006505,41325.459788781576,-17.69691954301461,-1297.7787611405295,884747.6840169065,0.9041703096053679
450.0000000000338,26091.571631772553,41195.615352003,-17.327652339519247,-1298.4443677857912,884651.746926474,0.06000000000000001
450.10000000003384,26089.880700199366,41066.31411140108,-16.90931573184832,-1293.0124060191913,883052.7954192656,1.0
450.20000000003387,26088.23558753004,40937.55592558522,-16.451126693241235,-1287.5818581585797,881453.8439120572,1.0
450.3000000000339,26086.643040293264,40808.72743177095,-15.92547236778231,-1288.284938142715,881357.9068216247,0.06000000000000001
450.4000000000339,26085.100371997236,40680.44192463295,-15.426682960294407,-1282.855071380068,879758.9553144163,1.0
450.50000000003394,26083.608107988704,40552.58212690326,-14.922640085317585,-1278.5979772968917,878449.8609895689,0.8187204670972379
450.60000000003396,26082.16670819537,40424.77843845646,-14.413997933345687,-1278.0368844680534,878046.3833646729,0.2523388752423434
450.700000000034,26080.769577178147,40297.52201434416,-13.971310172234247,-1272.5642411229342,876447.4318574645,1.0
450.800000000034,26079.412738913852,40170.49869732728,-13.568382642949102,-1270.2331701687974,875620.261025791,0.5173207742351151
450.900000000034,26078.089003107885,40044.02791840693,-13.237358059654204,-1264.7077892035031,874021.3095185827,1.0
451.00000000003405,26076.78946933445,39917.49411378878,-12.995337734352507,-1265.3380461815277,873925.3724281501,0.06000000000000001
451.1000000000341,26075.507542360945,39791.518199118356,-12.819269735058507,-1259.7591467042553,872326.4209209417,1.0
451.2000000000341,26074.231968178738,39665.84276005773,-12.755741822088074,-1256.7543906062876,871359.8070414525,0.6045298279101043
451.3000000000341,26072.95591544867,39540.551399196316,-12.760527300671008,-1252.9136086141216,870189.4781744317,0.7319351848662773
451.40000000003414,26071.66408804315,39415.41316506185,-12.91827405518267,-1251.3823413446269,869574.0353495805,0.38490399619795423
451.50000000003416,26070.35428779406,39290.833193479004,-13.09800249092815,-1245.799715828478,867975.083842372,1.0
451.6000000000342,26069.00474940024,39166.18746928985,-13.495383938216891,-1246.4572418915322,867879.1467519396,0.06000000000000001
451.7000000000342,26067.623028594877,39042.09738139672,-13.817208053608432,-1240.9008789312597,866280.1952447311,1.0
451.80000000003423,26066.202459167704,38918.47877772504,-14.205694271741136,-1236.1860367168101,864883.921644165,0.8732432436327717
451.90000000003425,26064.725772088663,38794.791081158306,-14.766870790420727,-1236.8769656673333,864787.9845537324,0.06000000000000001
452.0000000000343,26063.209893879583,38671.65946991163,-15.15878209079529,-1231.3161124667606,863189.033046524,1.0
452.1000000000343,26061.65518256508,38549.01420189277,-15.547113145037873,-1226.4526801885997,861761.7721229915,0.8926230202092984
452.2000000000343,26060.051760342158,38426.30163036407,-16.03422222919503,-1227.1257152870562,861665.835032559,0.06000000000000001
452.30000000003434,26058.42242063611,38304.150910479264,-16.2933970604622,-1221.5071988480277,860066.8835253506,1.0
452.40000000003437,26056.772024530314,38182.40845681321,-16.503961057966198,-1217.424536660535,858842.8168516287,0.7655433377457176
452.5000000000344,26055.10403392644,38060.73736246708,-16.67990603872793,-1216.710943461277,858429.5279552377,0.25847494093966267
452.6000000000344,26053.43958925759,37939.63703591473,-16.64444668850539,-1211.0032655234702,856830.5764480293,1.0
452.70000000003444,26051.77988206766,37818.5892621306,-16.597071899275647,-1210.477737841329,856470.9392173977,0.22492066145233636
452.80000000003446,26050.141588929488,37698.11210639285,-16.382931381742303,-1204.77155737749,854871.9877101893,1.0
452.9000000000345,26048.53038367207,37577.72661151134,-16.112052574172022,-1203.8549488151464,854408.7437840974,0.2897173078755086
453.0000000000345,26046.957744321655,37457.90901738337,-15.726393504155574,-1198.175941279705,852809.792276889,1.0
453.1000000000345,26045.428638986214,37338.078054999365,-15.291053354412114,-1198.3096238400462,852586.8445247036,0.1394337171454445
453.20000000003455,26043.949222447907,37218.81313042343,-14.794165383058246,-1192.6492457594131,850987.8930174952,1.0
453.3000000000346,26042.521878651634,37099.83431451725,-14.273437962730352,-1189.7881590617808,850052.1429176657,0.5852273165327124
453.4000000000346,26041.146802861287,36981.25223247486,-13.750757903475602,-1185.8208204238724,848855.9515830331,0.7481098264956489
453.5000000000346,26039.82170756578,36862.753304727135,-13.250952955043031,-1184.9892774771831,848402.6216116867,0.28351702306338306
453.60000000003464,26038.542178269217,36744.82482714096,-12.79529296565123,-1179.2847758617397,846803.6701044783,1.0
453.70000000003466,26037.300232222344,36626.884988766935,-12.41946046872178,-1179.3983837402766,846581.0644340664,0.1392197758395114
453.8000000000347,26036.089139590975,36509.520923555276,-12.110926313701079,-1173.6406521165889,844982.112926858,1.0
453.9000000000347,26034.897065238132,36392.38900557678,-11.920743528431915,-1171.3191797849643,844197.8417750003,0.49049089251429717
454.00000000003473,26033.715696612588,36275.80148149079,-11.813686255434034,-1165.8752408598677,842688.2281465932,0.9441272118644601
454.10000000003475,26032.528811618708,36159.15555075129,-11.868849938816622,-1166.459307394997,842592.2910561607,0.06000000000000001
454.2000000000348,26031.33312562474,36043.090262836384,-11.956859939686375,-1160.6528791490634,840993.3395489523,1.0
454.3000000000348,26030.109647068195,35927.057511772684,-12.234785565440157,-1160.3275106370145,840674.5959247827,0.19934539773883442
454.4000000000348,26028.859575850987,35811.6035640844,-12.500712172077826,-1154.5394768828623,839075.6444175743,1.0
454.50000000003485,26027.56732988357,35696.218305678085,-12.922459674167248,-1153.8525840631496,838666.4473863529,0.25591584821469765
454.60000000003487,26026.24011111235,35581.41149535236,-13.272187712196764,-1148.0681032572318,837067.4958791445,1.0
454.7000000000349,26024.86497908816,35466.56656574631,-13.751320241888124,-1148.4492960605198,836907.6820084051,0.09994916670015482
454.8000000000349,26023.457700449802,35352.302701550434,-14.072786383603116,-1142.63864195877,835308.7305011967,1.0
454.90000000003494,26022.01727439635,35238.29449045574,-14.404260534522555,-1140.0821109469907,834470.8011387113,0.5240492652265512
455.00000000003496,26020.555618365295,35124.7478554368,-14.616560310541434,-1135.4663501894102,833159.1650136183,0.8203101339720696
455.100000000035,26019.073905718928,35011.13994865229,-14.817126463683437,-1136.0790678450405,833063.2279231858,0.06000000000000001
455.200000000035,26017.594198784704,34898.122473381154,-14.79706934225028,-1130.1747527113816,831464.2764159774,1.0
455.300000000035,26016.11954681713,34785.30445958049,-14.746519675714826,-1128.1801380066652,830773.8938012868,0.4317720778761886
455.40000000003505,26014.664807048055,34673.07825528381,-14.54739769076796,-1122.262042966761,829174.9422940784,1.0
455.5000000000351,26013.23282307371,34560.79017241533,-14.319839743456075,-1122.8808286848475,829079.0052036459,0.06000000000000001
455.6000000000351,26011.836786596297,34449.091249971425,-13.960364774154783,-1116.989224439042,827480.0536964375,1.0
455.7000000000351,26010.477792431164,34337.32819376004,-13.589941651333502,-1117.6305621138567,827384.116606005,0.06000000000000001
455.80000000003514,26009.1628204708,34226.15397499416,-13.14971960365302,-1111.7421876588342,825785.1650987966,1.0
455.90000000003516,26007.889886197467,34115.126411119774,-12.729342733330972,-1110.2756387438335,825203.8691023086,0.3635482338690708
456.0000000000352,26006.65902342769,34004.68982751362,-12.308627697802681,-1104.3658360615293,823604.9175951002,1.0
456.1000000000352,26005.46186020988,33894.189788852884,-11.971632178083295,-1105.0003866073432,823508.9805046677,0.06000000000000001
456.20000000003523,26004.29561912721,33784.28398832505,-11.662410826732824,-1099.0580052783212,821910.0289974593,1.0
456.30000000003525,26003.146957016164,33674.317933927785,-11.486621110458152,-1099.6605439726463,821814.0919070268,0.06000000000000001
456.4000000000353,26002.012041321173,33564.95194962346,-11.349156949925163,-1093.6598430432557,820215.1403998184,1.0
456.5000000000353,26000.87749684137,33455.767925074455,-11.345444798026644,-1091.8402454900192,819572.8734341208,0.40168007772729014
456.6000000000353,25999.74088194418,33347.184798949005,-11.366148971907116,-1085.8312612545126,817973.9219269124,1.0
456.70000000003535,25998.585180697824,33238.540421932215,-11.557012463558353,-1086.4437701679185,817877.9848364799,0.06000000000000001
456.80000000003537,25997.41126818051,33130.49485640183,-11.739125173170075,-1080.4556553038665,816279.0333292715,1.0
456.9000000000354,25996.20443682483,33022.38650162193,-12.068313556756129,-1081.083547798958,816183.096238839,0.06000000000000001
457.0000000000354,25994.9736815663,32914.87758652066,-12.307552585327798,-1075.0891510126257,814584.1447316306,1.0
457.10000000003544,25993.70958164818,32807.3086135782,-12.64099918118126,-1075.689729424599,814481.8705268124,0.06396329366907413
457.20000000003546,25992.426969996413,32700.34101205155,-12.826116517698066,-1069.6760152664947,812882.919019604,1.0
457.3000000000355,25991.126591115026,32593.532390033084,-13.003788813885308,-1068.0862201846749,812288.5744521576,0.37170893849312325
457.4000000000355,25989.822765870867,32487.32993742803,-13.03825244158991,-1062.024526050537,810689.6229449492,1.0
457.5000000000355,25988.512769815014,32381.069637567747,-13.099960558544065,-1062.6029986028093,810593.6858545167,0.06000000000000001
457.60000000003555,25987.212183712425,32275.41888970738,-13.005861025891832,-1056.5074786036705,808994.7343473083,1.0
457.7000000000356,25985.920918778767,32169.710128818107,-12.912649336576017,-1057.087608892727,808898.7972568758,0.06000000000000001
457.8000000000356,25984.652940901167,32064.610379078935,-12.679778775996411,-1050.9974973917315,807299.8457496674,1.0
457.9000000000356,25983.406804711773,31959.449610258893,-12.46136189395206,-1051.6076882004122,807203.9086592349,0.06000000000000001
458.00000000003564,25982.191713398413,31854.89659903298,-12.150913133579406,-1045.530112259103,805604.9571520265,1.0
458.10000000003566,25981.00283544562,31750.29053447963,-11.888779527953016,-1046.0606455335019,805488.2331549968,0.07300033584729318
458.2000000000357,25979.844449021548,31646.29371217554,-11.583864240709762,-1039.9682230409385,803889.2816477884,1.0
458.3000000000357,25978.708602840736,31542.365735364285,-11.358461808109457,-1039.2797681125467,803503.8222589137,0.24107009320605904
458.40000000003573,25977.595166314226,31439.051360626494,-11.134365265104936,-1033.1437473778983,801904.8707517053,1.0
458.50000000003575,25976.49173150198,31335.67897434306,-11.03434812243175,-1033.7238628343305,801808.9336612727,0.06000000000000001
