t[s],x[m],y[m],vx[m/s],vy[m/s],mass[kg]
442.60000000003214,26222.60852642287,51699.88552408142,-18.786557684794694,-1563.6919946844932,972881.4197654276
442.70000000003216,26220.7450468837,51544.07477783306,-18.63479539171323,-1558.1074624836097,971282.4682582192
442.8000000000322,26218.895958371813,51388.82409161117,-18.490885118865858,-1552.5068622189717,969683.5167510108
442.9000000000322,26217.06026618407,51234.13519391424,-18.35692187741666,-1546.8889769692832,968084.5652438024
443.00000000003223,26215.236793858116,51080.00990915494,-18.234723259562163,-1541.2528475929603,966485.613736594
443.10000000003225,26213.42417080849,50926.450131520716,-18.12623049625567,-1535.5977763422227,964886.6622293856
443.2000000000323,26211.620849312418,50773.45775912782,-18.033214960720702,-1529.9237239289766,963287.7107221772
443.3000000000323,26209.82510512293,50621.03475309664,-17.95744189485815,-1524.2300603118433,961688.7592149688
443.4000000000323,26208.03581602971,50469.18194059732,-17.892890932186692,-1518.5281249931913,960089.8077077604
443.50000000003234,26206.2503231215,50317.89924625227,-17.85492908208552,-1512.8269434504741,958490.856200552
443.60000000003237,26204.455253775854,50166.7298044433,-17.95069345647716,-1511.694418089745,958167.4705308748
443.7000000000324,26202.65929366906,50016.12955025088,-17.95960106790624,-1506.0025419241404,956568.5190236664
443.8000000000324,26200.845174391725,49865.63896950356,-18.141192773359254,-1504.9058074731515,956250.3007301248
443.90000000003243,26199.025739872315,49715.71678012147,-18.19434519408087,-1499.2218938209091,954651.3492229164
444.00000000003246,26197.181474734778,49565.91228039569,-18.442651375371835,-1498.0449972577223,954306.9334545447
444.1000000000325,26195.328394584896,49416.67588634099,-18.530801498805996,-1492.363940547034,952707.9819473363
444.2000000000325,26193.445432390334,49267.544100017185,-18.829621945639797,-1491.317863238054,952397.706842521
444.3000000000325,26191.551697125527,49118.98085366092,-18.937352648064394,-1485.6324635626852,950798.7553353126
444.40000000003255,26189.62768944664,48970.543301585785,-19.240076788882746,-1484.375520751362,950429.8938209522
444.50000000003257,26187.692979225012,48822.67565188717,-19.34710221628793,-1478.6764969861777,948830.9423137438
444.6000000000326,26185.728649782555,48674.893318237235,-19.64329442457826,-1477.823336499333,948576.1338497696
444.7000000000326,26183.755946224857,48527.68310324618,-19.727035576982484,-1472.1021499105682,946977.1823425612
444.80000000003264,26181.761962571694,48380.62121212533,-19.93983653162012,-1470.6189112085156,946552.877516423
444.90000000003266,26179.764134887067,48234.13457317861,-19.97827684625677,-1464.8663894671079,944953.9260092146
445.0000000000327,26177.750709721684,48087.67941343241,-20.134251653841556,-1464.551597462086,944857.9889187821
445.1000000000327,26175.739727193584,47941.80293557695,-20.109825280982495,-1458.7647785546428,943259.0374115737
445.20000000003273,26173.72887259486,47796.14547201634,-20.108545987237495,-1456.574635606068,942654.2087256473
445.30000000003275,26171.726699333867,47651.036134945156,-20.021732609917933,-1451.0933707118063,941147.6172175556
445.4000000000328,26169.73301688265,47505.95978605524,-19.936824512179214,-1450.763488899152,941051.6801271231
445.5000000000328,26167.75533812208,47361.46341032898,-19.776787605711196,-1444.9637572625923,939452.7286199147
445.6000000000328,26165.79775509199,47217.11173639317,-19.575830300904123,-1443.5167393581014,939043.5388364373
445.70000000003284,26163.862658066784,47073.33847764765,-19.35097025205585,-1437.7325874551593,937444.5873292289
445.80000000003287,26161.957904082094,46929.59294303268,-19.04753984690036,-1437.4553461497594,937348.6502387964
445.9000000000329,26160.080896520463,46786.424643325605,-18.770075616295884,-1431.682997070737,935749.698731588
446.0000000000329,26158.238602725196,46643.45976907579,-18.422937952668832,-1429.648742498154,935170.2938262433
446.10000000003294,26156.42716221206,46501.06711996182,-18.11440513136064,-1423.9264911396172,933585.4104973148
446.20000000003296,26154.65520796007,46358.70002536579,-17.719542519921358,-1423.6709459603192,933489.4734068823
446.300000000033,26152.91415323692,46216.91146157486,-17.410547231477846,-1417.8856379092913,931890.5218996739
446.400000000033,26151.20867897176,46075.2370097289,-17.054742651615932,-1416.7445184596047,931556.438489866
446.500000000033,26149.530910456662,45934.14376825253,-16.777685151002746,-1410.9324147637462,929957.4869826576
446.60000000003305,26147.881716951393,45793.10372896424,-16.491935052696757,-1410.4003928828997,929794.6804317608
446.70000000003307,26146.25388330479,45652.6486721621,-16.278336466037338,-1404.5505680214715,928195.7289245524
446.8000000000331,26144.642665907813,45512.344131826954,-16.112173969775753,-1403.0454033514043,927778.4446453387
446.9000000000331,26143.043929529762,45372.62908563238,-15.98736378051354,-1397.1504619457116,926179.4931381303
447.00000000003314,26141.44643714818,45232.948925815144,-15.974923815797927,-1396.8015981723916,926083.5560476978
447.10000000003316,26139.851346161227,45093.859654423584,-15.950909869534197,-1390.892713915604,924484.6045404894
447.2000000000332,26138.242188539105,44954.85526036845,-16.09157622122428,-1390.0439405513632,924247.0356596395
447.3000000000332,26136.623794042778,44816.43970287061,-16.183944963277252,-1384.155574978413,922648.0841524311
447.40000000003323,26134.97596581771,44678.09598030292,-16.478282250677122,-1383.4372256769107,922437.5346972989
447.50000000003325,26133.309332313293,44540.33932292438,-16.666335044188656,-1377.5665737853708,920838.5831900905
447.6000000000333,26131.603609579433,44402.682114137264,-17.057227338592227,-1376.5720878711852,920548.2090819082
447.7000000000333,26129.873581338896,44265.611527930894,-17.300282405380315,-1370.7058620636792,918949.2575746998
447.8000000000333,26128.09889514119,44128.59099503106,-17.746861977072655,-1370.2053289983544,918789.624831322
447.90000000003334,26126.299961125565,43992.158290298845,-17.989340156253984,-1364.327047322127,917190.6733241136
448.00000000003337,26124.46354231247,43855.86115539881,-18.364188130949792,-1362.9713490003853,916805.2816980357
448.1000000000334,26122.60900405935,43720.1550113986,-18.545382531205814,-1357.0614400020384,915206.3301908273
448.2000000000334,26120.725490623463,43584.47877282755,-18.835134358887817,-1356.762385710554,915110.3931003948
448.30000000003344,26118.835220165416,43449.39790667306,-18.902704580480243,-1350.8086615448844,913511.4415931863
448.40000000003346,26116.93510335559,43314.40271959222,-19.001168098274327,-1349.9518708084242,913276.3816431995
448.5000000000335,26115.042547960777,43180.00774507757,-18.925553948147154,-1343.9497451464656,911677.4301359911
448.6000000000335,26113.158500907517,43045.646622784145,-18.840470532602406,-1343.611222934253,911581.4930455586
448.7000000000335,26111.295767459793,42911.88346934505,-18.627334477240705,-1337.6315343909405,909982.5415383502
448.80000000003355,26109.460146819158,42778.22620699806,-18.35620640636465,-1336.5726234699018,909684.9624053575
448.9000000000336,26107.65808751144,42645.16411449465,-18.02059307714781,-1330.6209250341196,908086.0108981491
449.0000000000336,26105.89707574413,42512.128401004804,-17.610117673105563,-1330.3571348984115,907990.0738077166
449.1000000000336,26104.177507330154,42379.686304665884,-17.19568413975517,-1324.4209633892176,906391.1223005082
449.20000000003364,26102.50493063594,42247.34203150868,-16.72576694213096,-1323.442731572082,906102.4657087465
449.30000000003366,26100.875247293498,42115.59217679623,-16.296833424414114,-1317.4985471244686,904503.514201538
449.4000000000337,26099.29029652884,41983.86798705489,-15.849507646545936,-1317.2418974133855,904407.5771111056
449.5000000000337,26097.742459499055,41852.74133321564,-15.478370297858666,-1311.2665383924148,902808.6256038971
449.60000000003373,26096.22711195692,41721.7153546726,-15.153475421361517,-1310.2597854304518,902523.6929956997
449.70000000003375,26094.736589422337,41591.29213269341,-14.905225345830175,-1304.232219791883,900924.7414884913
449.8000000000338,26093.259383838325,41460.90213120656,-14.772055840094465,-1303.9000148685216,900828.8043980588
449.9000000000338,26091.79036518613,41331.12058177933,-14.69018652194014,-1297.8154942723202,899229.8528908504
450.0000000000338,26090.312563033953,41201.37299276102,-14.778021521789267,-1297.4758901831472,899133.9158004179
450.10000000003384,26088.824989091056,41072.23125741173,-14.875739428954759,-1291.4173534928898,897534.9642932095
450.20000000003387,26087.306048854964,40943.135658179635,-15.189402360937105,-1290.9559923209636,897396.8295454906
450.3000000000339,26085.761765436484,40814.643111166035,-15.442834184805674,-1284.9254701359876,895797.8780382822
450.4000000000339,26084.171305662436,40686.20618260568,-15.904597740464144,-1284.3692856035316,895627.1673601143
450.50000000003394,26082.54780774275,40558.37147863393,-16.234979196839358,-1278.3470397174776,894028.2158529059
450.60000000003396,26080.87430427374,40430.57635914395,-16.735034690096512,-1277.9511948997767,893897.8713838375
450.700000000034,26079.17061561995,40303.3853852617,-17.036886537881312,-1271.9097388224852,892298.9198766291
450.800000000034,26077.427399596065,40176.25781666654,-17.432160238875305,-1271.27568595165,892112.2580246829
450.900000000034,26075.6671545613,40049.7389249107,-17.60245034766446,-1265.188917558423,890513.3065174745
451.00000000003405,26073.887341929923,39923.25260953289,-17.79812631373822,-1264.8631537781228,890417.369427042
451.1000000000341,26072.111754918133,39797.38067547045,-17.75587011789273,-1258.719340624391,888818.4179198336
451.2000000000341,26070.34158225272,39671.54420738372,-17.701726654109525,-1258.3646808672784,888722.480829401
451.3000000000341,26068.594156618845,39546.32101681589,-17.474256338750664,-1252.2319056782958,887123.5293221927
451.40000000003414,26066.87571934202,39421.1281111694,-17.184372768243634,-1251.9290564649737,887027.5922317602
451.50000000003416,26065.19666909669,39296.54504695097,-16.790502453297048,-1245.8306421843326,885428.6407245517
451.6000000000342,26063.562716304772,39171.98811428788,-16.339527919200385,-1245.5693266308667,885332.7036341192
451.7000000000342,26061.976579270224,39048.03926188567,-15.861370345484687,-1239.4885240220917,883733.7521269108
451.80000000003423,26060.43950272263,38924.11562866744,-15.370765475942083,-1239.2363321823063,883637.8150364783
451.90000000003425,26058.94762231014,38800.80208085635,-14.918804124887306,-1233.1354781108862,882038.8635292699
452.0000000000343,26057.495033857533,38677.52450022294,-14.525884526077162,-1232.775806334111,881922.0358370452
452.1000000000343,26056.07423469965,38554.86221981771,-14.20799157883634,-1226.622804052284,880323.0843298368
452.2000000000343,26054.671620972218,38432.2326572698,-14.026137274313324,-1226.295625479131,880227.1472394043
452.30000000003434,26053.28002424617,38310.22505398783,-13.915967260479732,-1220.0760328197418,878628.1957321959
452.40000000003437,26051.88183157656,38188.25242468197,-13.981926696106859,-1219.726293058656,878532.2586417634
452.5000000000344,26050.472206977844,38066.89946111881,-14.09624598717171,-1213.5296356316028,876933.307134555
452.6000000000344,26049.02890937588,37945.57667365237,-14.432976019635397,-1213.2278746643883,876837.3700441225
452.70000000003444,26047.556416057363,37824.87059193191,-14.724933185163561,-1207.0608172045854,875238.418536914
452.80000000003446,26046.03587012321,37704.19181103312,-15.20545934153496,-1206.7878089879396,875142.4814464815
452.9000000000345,26044.480969952438,37584.12962410603,-15.54900170771602,-1200.6218692708476,873543.5299392731
453.0000000000345,26042.88041107726,37464.09534283645,-16.005588751744458,-1200.3428126958206,873447.5928488406
453.1000000000345,26041.255221171454,37344.68118793708,-16.251899058086973,-1194.141548993737,871848.6413416322
453.20000000003455,26039.602880141305,37225.298658052,-16.523410301477224,-1193.8252988508177,871752.7042511997
453.3000000000346,26037.947977887656,37106.54173055207,-16.549022536492775,-1187.5692749993254,870153.7527439913
453.4000000000346,26036.292831783237,36987.82088316929,-16.551461044197755,-1187.2084738277952,870057.8156535588
453.5000000000346,26034.656612760755,36869.6456177029,-16.362190224816796,-1181.752654663893,868665.4634301024
453.60000000003464,26033.046095980008,36751.501808299145,-16.10516780747666,-1181.438094037561,868569.52633967
453.70000000003466,26031.47458344001,36633.98136378728,-15.715125399970113,-1175.2044451186541,866970.5748324615
453.8000000000347,26029.945476736888,36516.488629994994,-15.291067031230211,-1174.9273379228378,866874.637742029
453.9000000000347,26028.46329899049,36399.607415435996,-14.821777463978027,-1168.8121455900002,865303.000217087
454.00000000003473,26027.024858360124,36282.753684936644,-14.384406303653563,-1168.5373049935229,865207.0631266545
454.10000000003475,26025.626817381257,36166.4666781062,-13.980409788688547,-1162.8700683044906,863755.624537923
454.2000000000348,26024.257862143964,36050.21057964979,-13.689552372908647,-1162.5609845640367,863659.6874474905
454.3000000000348,26022.911065474687,35934.585119284144,-13.467966692775319,-1156.2546036564754,862060.7359402821
454.4000000000348,26021.568009778894,35818.995907846365,-13.430556957942429,-1155.892114377779,861964.7988498496
454.50000000003485,26020.223468618493,35703.914585004306,-13.44541160401643,-1150.8132284206292,860681.9670959351
454.60000000003487,26018.85630971231,35588.865877548444,-13.67158906183067,-1150.4870745586259,860586.0300055026
454.7000000000349,26017.466933313917,35474.4474237587,-13.893763983935735,-1144.1845378974474,858987.0784982942
454.8000000000349,26016.03741373363,35360.059007720934,-14.295195802861349,-1143.8841603776746,858891.1414078617
454.90000000003494,26014.57775668357,35246.28537363008,-14.596570500580777,-1137.7363409085058,857331.19488255
455.00000000003496,26013.078593185248,35132.54195001467,-14.991634983230956,-1137.4342361541323,857235.2577921175
455.100000000035,26011.556894049725,35019.32977643862,-15.21699135522896,-1132.1217357604323,855890.9835355405
455.200000000035,26010.014128826588,34906.15035510638,-15.427652231390123,-1131.7942133224255,855795.046445108
455.300000000035,26008.473460648293,34793.609368996666,-15.406681782961979,-1125.4098610971762,854196.0949378996
455.40000000003505,26006.936898412656,34681.10480581302,-15.36562235636403,-1125.0456318364866,854100.1578474671
455.5000000000351,26005.421919565,34569.09725882812,-15.149788476553242,-1120.0754698489475,852851.3350317046
455.6000000000351,26003.933782465196,34457.12128785996,-14.881370998028558,-1119.759709681592,852755.3979412721
455.7000000000351,26002.483997140425,34345.78086090466,-14.497853247717735,-1113.4042695529693,851156.4464340637
455.80000000003514,26001.07095415196,34234.47036767644,-14.130429884654868,-1113.1049322822294,851060.5093436312
455.90000000003516,25999.69684486255,34123.72460024343,-13.741092894127753,-1107.4576743300727,849639.52605256
456.0000000000352,25998.35248956487,34013.00998097439,-13.443552976792045,-1107.1461926903914,849543.5889621275
456.1000000000352,25997.033852700515,33902.892963187536,-13.186368643532893,-1101.1701778685185,848049.5904492192
456.20000000003523,25995.724626547446,33792.81165222608,-13.092261530692808,-1100.8131096145094,847953.6533587867
456.30000000003525,25994.419011149606,33683.24375314935,-13.056153978391526,-1095.678990767356,846679.7722486688
456.4000000000353,25993.10160778707,33573.710344340354,-13.17403362534615,-1095.334088089957,846583.8351582363
456.5000000000353,25991.77034741449,33464.818630139234,-13.31260372579486,-1088.9171420111895,844984.8836510279
456.6000000000353,25990.408483486066,33355.958472051534,-13.618639284262523,-1088.6015808769923,844888.9465605954
456.70000000003535,25989.021463419227,33247.55608061191,-13.870200668391693,-1084.0239143962112,843743.3225788155
456.80000000003537,25987.60445158762,33139.18527648537,-14.170118316063904,-1083.7080412654223,843647.385488383
456.9000000000354,25986.175427322458,33031.45833023367,-14.290242651617977,-1077.2694625170293,842048.4339811746
457.0000000000354,25984.73469795983,32923.76614084685,-14.407293626275669,-1076.9218938681786,841952.4968907421
457.10000000003544,25983.298360059212,32816.62803623685,-14.363379006183056,-1071.381046099977,840586.8481294225
457.20000000003546,25981.86935547676,32709.525865026826,-14.290045824516817,-1071.0217121002372,840490.91103899
457.3000000000355,25980.463051670522,32602.99140564677,-14.063038062372753,-1065.344593800555,839088.6232798231
457.4000000000355,25979.080251737036,32496.489007435986,-13.82799933486405,-1065.0239821078487,838992.6861893906
457.5000000000355,25977.728939864483,32390.530028442143,-13.513118725548317,-1059.589789938425,837645.3588873125
457.60000000003555,25976.403555710735,32284.602529582004,-13.253841537472391,-1059.2749886014008,837549.42179688
457.7000000000356,25975.105100008415,32179.268602106975,-12.984557023189975,-1053.339274750286,836085.0492787068
457.8000000000356,25973.820725402737,32073.969564796,-12.84374605680211,-1052.9903731097497,835989.1121882743
457.9000000000356,25972.546371294153,31969.145388584006,-12.743541085838968,-1048.2417621199274,834824.8022697495
458.00000000003564,25971.26817594297,31864.357016001704,-12.781953511845572,-1047.883725823015,834728.865179317
458.10000000003566,25969.987737637235,31760.221871723224,-12.804383057350034,-1041.3514427847886,833129.9136721086
458.2000000000357,25968.690884574957,31656.120176959907,-12.968530622772654,-1041.016947633166,833033.976581676
458.3000000000357,25967.38005835524,31552.41452203783,-13.108262197162162,-1037.0565492207784,832055.6064452763
458.40000000003573,25966.050164479646,31448.78265746323,-13.298938755942265,-1036.3186457460029,831859.2479335666
458.50000000003575,25964.712976086397,31345.80438951955,-13.371883932486952,-1029.7826794368068,830260.2964263582
458.6000000000358,25963.36396425909,31242.86105174456,-13.490118273066077,-1029.433377749918,830164.3593359257
458.7000000000358,25962.014902599563,31140.34036607605,-13.490616595260176,-1025.2068566851256,829133.277193068
458.8000000000358,25960.667688721427,31037.8559096665,-13.472138781376307,-1024.8445640954908,829037.3401026354
458.90000000003585,25959.337425370533,30936.0297304505,-13.302633508954093,-1018.2617921600242,827438.388595427
459.00000000003587,25958.022168608306,30834.238236199828,-13.152567622258061,-1017.914942506711,827342.4515049945
459.1000000000359,25956.729172609415,30732.882527453978,-12.929959988903937,-1013.5570874585089,826278.4639182722
459.2000000000359,25955.453714151707,30631.56102873149,-12.75458457708014,-1013.2149872248972,826182.5268278397
459.30000000003594,25954.199455528316,30530.89917257045,-12.54258623390108,-1006.6185616103745,824583.5753206313
459.40000000003596,25952.95397639386,30430.27299131578,-12.454791344555845,-1006.2618125467127,824487.6382301988
459.500000000036,25951.71496435445,30330.030258325864,-12.390120394089847,-1002.4273298991621,823557.5333716252
459.600000000036,25950.472728465495,30229.865241614534,-12.422358889561405,-1001.6501671132872,823362.3994257876
459.700000000036,25949.23072142629,30130.36258881758,-12.420070392045265,-995.0265279695133,821763.4479185792
459.80000000003605,25947.977246027396,30030.895185821755,-12.534753988936352,-994.6740299582777,821667.5108281467
459.9000000000361,25946.71548208404,29931.752865473456,-12.617639433551505,-991.423203483,820876.7779427922
460.0000000000361,25945.4448478742,29832.80687078,-12.70634209839539,-989.4599469345561,820395.7156351794
460.1000000000361,25944.172138385537,29734.33225338916,-12.727094886637882,-984.7461739084199,819258.7389354097
460.20000000003614,25942.895375564432,29635.893811498634,-12.767628211058117,-984.3844189052448,819162.8018449772
