t[s],x[m],y[m],vx[m/s],vy[m/s],mass[kg],tau[-]
435.8000000000306,28053.931308934145,51328.35133178331,-20.99677640194667,-1539.2725636689772,960953.2415216531,0.06000000000000001
435.9000000000306,28051.859108874567,51174.92650730692,-20.72200059577788,-1534.2482447639522,959354.2900144447,1.0
436.00000000003064,28049.814337984375,51022.00512140276,-20.44770890193481,-1529.2138590415348,957755.3385072363,1.0
436.10000000003066,28047.78319114522,50869.290400482016,-20.31146839156921,-1527.147209207444,956949.6320160185,0.5038967645895245
436.2000000000307,28045.779348727297,50717.080645474925,-20.0384241792318,-1522.097550070919,955350.6805088101,1.0
436.3000000000307,28043.784493466184,50564.97879538438,-19.94855261111925,-1521.0185009054783,954809.4607621133,0.3384841530570729
436.40000000003073,28041.816804470236,50413.3832807437,-19.67688995949644,-1515.9551464067613,953210.5092549049,1.0
436.50000000003075,28039.868599044756,50262.12772433484,-19.482054254807032,-1512.555564088639,952055.3489493147,0.7224486173486848
436.6000000000308,28037.939963732973,50111.21572155058,-19.286353117810226,-1509.1200278426127,950892.0970568181,0.727509175389233
436.7000000000308,28036.03041459776,49960.63830439711,-19.095491352140613,-1505.7741715346908,949754.0127353513,0.711769128917298
436.8000000000308,28034.14083638151,49810.41682628246,-18.895782162490733,-1502.2147811464395,948560.9162017519,0.7461743074888445
436.90000000003084,28032.268811473077,49660.49928122772,-18.720249084343322,-1499.1754505474303,947506.5464270029,0.6594132279782989
437.00000000003087,28030.419890032328,49511.011399973926,-18.489214407494995,-1494.8788125379522,946122.0579493296,0.8658727118562882
437.1000000000309,28028.580351002478,49361.647459943306,-18.395390298513995,-1493.6394003061928,945544.0704338977,0.3614790772742317
437.2000000000309,28026.76738947544,49212.79585526647,-18.129615270363352,-1488.5160467683177,943945.1189266893,1.0
437.30000000003093,28024.970494755285,49064.22142538377,-17.968947201552847,-1485.74429882705,942966.2481971426,0.612195382495127
437.40000000003096,28023.19914544995,48916.14109209396,-17.71349305334844,-1480.8033328981016,941419.5554580883,0.9673168523757749
437.500000000031,28021.429943691364,48768.02390388494,-17.69201758586305,-1481.1718820902072,941265.5403166134,0.09632258438142981
437.600000000031,28019.68697735414,48620.42187098117,-17.42966337224536,-1476.0203290377005,939666.588809405,1.0
437.700000000031,28017.97017275366,48473.33604577491,-17.168046004813995,-1470.858252062613,938067.6373021966,1.0
437.80000000003105,28016.25921372485,48326.30038637928,-17.109590288102297,-1470.3565939563125,937687.2353289915,0.23790713570121352
437.90000000003107,28014.574211326024,48179.7822566817,-16.85002398826176,-1465.181296975753,936088.2838217831,1.0
438.0000000000311,28012.911571018023,48033.70080710602,-16.626403080005414,-1460.8144957567763,934702.5634716194,0.8666431370286254
438.1000000000311,28011.25672877561,47887.7177363798,-16.54842242411491,-1459.8307072621917,934198.2934118072,0.3153754554399693
438.20000000003114,28009.627560771685,47742.25453076108,-16.29168003924005,-1454.6320561871635,932599.3419045988,1.0
438.30000000003116,28008.014929146284,47597.09836444769,-16.126316254028133,-1451.5616631339271,931555.1191049514,0.653067209943407
438.4000000000312,28006.423404440593,47452.359874823924,-15.915247056891769,-1447.3848962376337,930225.4928477796,0.8315613395262644
438.5000000000312,28004.841311448734,47307.76322835917,-15.820929918591094,-1445.9664646475628,929611.3338393578,0.3841010847752768
438.60000000003123,28003.28448765643,47163.6895481541,-15.568237923023567,-1440.7368020506985,928012.3823321494,1.0
438.70000000003125,28001.73872233313,47019.799731758736,-15.45765323298433,-1438.8981639536535,927291.3193297095,0.4509598941488839
438.8000000000313,28000.21801115625,46876.434465101665,-15.20711176883596,-1433.652666570696,925692.3678225011,1.0
438.9000000000313,27998.703560167294,46733.139603564996,-15.144509889556849,-1432.9486153666774,925265.2453159691,0.26712661679011945
439.0000000000313,27997.213931144055,46590.37068788577,-14.89629023239699,-1427.6891567922582,923666.2938087607,1.0
439.10000000003134,27995.741771755165,46447.95035784319,-14.721593888905769,-1424.2033004257912,922525.692148113,0.7133434976017771
439.20000000003137,27994.285378394903,46305.83916099955,-14.563933602605632,-1421.1119684363966,921487.7513435717,0.6491383884139714
439.3000000000314,27992.8486188473,46164.135908348886,-14.367595476048674,-1417.0325265066488,920197.8364378866,0.8067254697030529
439.4000000000314,27991.421366832314,46022.5902574244,-14.272520149846581,-1415.4565092448236,919550.3388277509,0.4049513742077925
439.50000000003143,27990.018337579648,45881.57451381357,-14.030292526676549,-1410.1574361083678,917951.3873205425,1.0
439.60000000003146,27988.622706106842,45740.66646753258,-13.956314728048719,-1409.0804628098858,917432.9396059847,0.3242423001701572
439.7000000000315,27987.251036708072,45600.28981454571,-13.716693987700483,-1403.7665298687527,915833.9880987763,1.0
439.8000000000315,27985.891282768036,45460.13977592346,-13.59753940035812,-1401.500386222478,915014.002423665,0.5128271066474426
439.9000000000315,27984.555229569767,45320.52283031326,-13.36053198269731,-1396.1694561020274,913415.0509164566,1.0
440.00000000003155,27983.21996917573,45180.84830490387,-13.352603940366642,-1396.7452540939144,913319.1138260241,0.06000000000000001
440.10000000003157,27981.908116974366,45041.708086142135,-13.11852201366147,-1391.4021876173672,911720.1623188157,1.0
440.2000000000316,27980.619545007587,44903.1032989606,-12.885719667782139,-1386.0478718153402,910121.2108116073,1.0
440.3000000000316,27979.331709741862,44764.44112246025,-12.878352657235526,-1386.621765003508,910025.2737211748,0.06000000000000001
440.40000000003164,27978.066846871163,44626.3156018578,-12.648628706989657,-1381.2552060245332,908426.3222139664,1.0
440.50000000003166,27976.82482049846,44488.72787101078,-12.420263727029043,-1375.8773084702236,906827.370706758,1.0
440.6000000000317,27975.583472019127,44351.08294514797,-12.413484793340581,-1376.4492586280398,906731.4336163255,0.06000000000000001
440.7000000000317,27974.36463620951,44213.97704417817,-12.188358096177568,-1371.0590096979715,905132.4821091171,1.0
440.80000000003173,27973.167097858208,44077.382561112754,-11.975383513026681,-1365.944830654219,903605.8819374932,0.9547507630729724
440.90000000003175,27971.970150285288,43940.731078804754,-11.96947572920072,-1366.5148230800014,903509.9448470607,0.06000000000000001
441.0000000000318,27970.79520269823,43804.62096003424,-11.749475870550107,-1361.1011877050994,901910.9933398523,1.0
441.1000000000318,27969.641605643068,43669.03939979996,-11.53597055163905,-1355.815602342752,900347.0394858073,0.978112123472406
441.2000000000318,27968.488533419422,43533.40104208693,-11.530722236453807,-1356.3835771303384,900251.1023953748,0.06000000000000001
441.30000000003184,27967.356947217864,43398.30643271898,-11.315862015567639,-1350.9460936795376,898652.1508881664,1.0
441.40000000003187,27966.243939739652,43263.677532601825,-11.130074782133606,-1346.28900117151,897251.0754797062,0.8762463415205939
441.5000000000319,27965.13270338128,43129.030355420444,-11.112363583717109,-1346.4717718138236,897059.5487476924,0.11978270207095648
441.6000000000319,27964.042409092377,42994.92928447063,-10.902942889033186,-1341.0107094981227,895460.597240484,1.0
441.70000000003193,27962.970396370736,42861.301729950545,-10.720127216419279,-1336.275545200877,894045.2706162919,0.8851591920152269
441.80000000003196,27961.89919205524,42727.63054305608,-10.712043154948693,-1336.7118689446513,893917.6272607599,0.07982941005810157
441.900000000032,27960.848355145117,42594.50780468408,-10.508369101240147,-1331.2273837200369,892318.6757535515,1.0
442.000000000032,27959.816981380078,42461.912676199354,-10.313737650401734,-1325.951284847234,890774.3449709195,0.9658396615968832
442.100000000032,27958.785914075648,42329.261373704816,-10.310673044285755,-1326.513024945362,890678.407880487,0.06000000000000001
442.20000000003205,27957.77461166173,42197.16095131856,-10.113024139180801,-1321.0042238625751,889079.4563732786,1.0
442.30000000003207,27956.77840389777,42065.47168694822,-9.962077639615616,-1316.8926437033788,887828.7779061177,0.7821866151178556
442.4000000000321,27955.787698801876,41933.89437152958,-9.90705095895057,-1315.773154186357,887318.4056302636,0.3191918413743406
442.5000000000321,27954.816127440386,41802.870473877636,-9.715713614899162,-1310.2389765194532,885719.4541230552,1.0
442.60000000003214,27953.84904000229,41671.931134290484,-9.670874380963529,-1309.3933958714863,885277.8725526315,0.2761694575682431
442.70000000003216,27952.900641521905,41541.54677163818,-9.483984803864422,-1303.8436265229927,883678.9210454231,1.0
442.8000000000322,27951.958457357938,41411.31003203416,-9.421841639666674,-1302.3673960402386,883083.5797553153,0.3723322986493895
442.9000000000322,27951.034506362346,41281.629949096314,-9.239509955905948,-1296.8008293784958,881484.6282481069,1.0
443.00000000003223,27950.111274861323,41151.917060504595,-9.23231501023219,-1297.1288859171805,881333.0178024364,0.0948186639726337
443.10000000003225,27949.205792969704,41022.76219310146,-9.054818916210156,-1291.5486740313895,879734.066295228,1.0
443.2000000000323,27948.314543443652,40894.05124541526,-8.912495260537414,-1287.1094768619869,878417.1132261809,0.8236354030187668
443.3000000000323,27947.425086460145,40765.3500482542,-8.894569835068728,-1287.0119716106622,878162.3336284175,0.15934166647007988
443.4000000000323,27946.552638247245,40637.20933305319,-8.724482128997685,-1281.4071520100783,876563.382121209,1.0
443.50000000003234,27945.690175815544,40509.382342844285,-8.624624317032717,-1278.2699020890548,875568.648470522,0.622116209405066
443.60000000003237,27944.838692443962,40381.91272091682,-8.514833715804741,-1274.6962192746234,874468.9099272959,0.6877873020340495
443.7000000000324,27943.99480911555,40254.68077728669,-8.438833284135915,-1272.3194363013354,873661.5624653436,0.5049230438274981
443.8000000000324,27943.166833284115,40128.01047750647,-8.279758314332351,-1266.7029978021706,872068.3276080634,0.996424750905594
443.90000000003243,27942.338585325848,40001.28534429097,-8.282479582681377,-1267.2513321550084,871972.3905176308,0.06000000000000001
444.00000000003246,27941.525705228956,39875.12556359109,-8.12880096892599,-1261.5978069987636,870373.4390104224,1.0
444.1000000000325,27940.718572728238,39749.1561981109,-8.071325007178743,-1259.6936548019444,869684.5475500673,0.4308394952876688
444.2000000000325,27939.92624275766,39623.753994628205,-7.923299705776317,-1254.0220348269206,868085.5960428589,1.0
444.3000000000325,27939.133496483075,39498.297272125244,-7.927462745868259,-1254.567225029629,867989.6589524264,0.06000000000000001
444.40000000003255,27938.354952876864,39373.40908542707,-7.7854360621006755,-1248.8818669817401,866390.707445218,1.0
444.50000000003257,27937.583302557538,39248.78654332682,-7.716503193249735,-1246.2254210024744,865524.160003585,0.5419472934146743
444.6000000000326,27936.823139096585,39124.64098561793,-7.601634609531616,-1241.455577088892,864150.1686376828,0.859307714904452
444.7000000000326,27936.062406114892,39000.44123036657,-7.607329816911007,-1241.9975525136529,864054.2315472503,0.06000000000000001
444.80000000003264,27935.314630515662,38876.81319255391,-7.4777559923030354,-1236.2803781265477,862455.2800400419,1.0
444.90000000003266,27934.575047194034,38753.5480630182,-7.395833216304019,-1232.6512953571116,861359.8941379552,0.6850651174526311
445.0000000000327,27933.840093530365,38630.48571308634,-7.349536636686374,-1230.6234993186108,860649.3387438502,0.44438833254269045
445.1000000000327,27933.117119984912,38507.997835840084,-7.2297354545359,-1224.8787724625213,859050.3872366418,1.0
445.20000000003273,27932.39337438984,38385.45618328739,-7.237455950716431,-1225.416525526982,858954.4501462093,0.06000000000000001
445.30000000003275,27931.68091638479,38263.49041251063,-7.124580050497421,-1219.6577077675784,857355.4986390009,1.0
445.4000000000328,27930.970887995747,38141.646737255214,-7.10028389041941,-1218.4367525541704,856840.8835489209,0.32184533912385715
445.5000000000328,27930.271442527308,38020.38068216979,-6.994454684375855,-1212.6605508542546,855241.9320417125,1.0
445.6000000000328,27929.571049616585,37899.06118966611,-7.003929107246475,-1213.194925036801,855145.99495128,0.06000000000000001
445.70000000003284,27928.88050226877,37778.320740810035,-6.905473478159363,-1207.4044885607434,853547.0434440715,1.0
445.80000000003287,27928.194791678856,37657.88081832017,-6.857105899129624,-1204.3992248986501,852611.8469523262,0.5848810845915368
445.9000000000329,27927.51468212613,37537.804005161444,-6.801095527258997,-1200.7681315872805,851529.4872264933,0.6769184186971305
446.0000000000329,27926.83713943963,37417.91262832704,-6.775426865004126,-1198.9137683440758,850869.0647156422,0.41303473424535603
446.10000000003294,27926.167917275132,37298.60385156466,-6.692221644991325,-1193.0877676237817,849270.1132084338,1.0
446.20000000003296,27925.497468361715,37179.24216633875,-6.704489134164088,-1193.6168522590697,849174.1761180013,0.06000000000000001
446.300000000033,27924.834530813318,37060.46452680023,-6.629375483987437,-1187.7763953851988,847575.2246107929,1.0
446.400000000033,27924.171538694853,36941.73044282017,-6.629921184640749,-1187.3408398006036,847252.4735798675,0.20185166934105653
446.500000000033,27923.515228563923,36823.58203466618,-6.563101309283896,-1181.4840815398668,845653.5220726591,1.0
446.60000000003305,27922.858624146895,36705.47542588899,-6.566044170295288,-1181.0660877719206,845335.8390443524,0.19868209065408338
446.70000000003307,27922.207846298646,36587.956127151134,-6.507778482490722,-1175.192987378524,843736.887537144,1.0
446.8000000000331,27921.55646870284,36470.470906951596,-6.51377595806168,-1174.8522019954114,843438.2407624273,0.18677663041704912
446.9000000000331,27920.910035272365,36353.57462397485,-6.464334304780108,-1168.9628297674506,841839.2892552189,1.0
447.00000000003314,27920.262873310807,36236.72173413051,-6.471619615576533,-1168.5288984434194,841519.7397942538,0.19984937599701974
447.10000000003316,27919.619746278513,36120.45943309119,-6.431270322951095,-1162.6230103931653,839920.7882870454,1.0
447.2000000000332,27918.975201317426,36004.20075837329,-6.445449610873616,-1162.5867471789838,839695.0092874274,0.14120440713812607
447.3000000000332,27918.333751927184,35888.53425739999,-6.414493902403305,-1156.6650097330769,838096.057780219,1.0
447.40000000003323,27917.691400960128,35772.97318544184,-6.423509670562464,-1155.6107195814752,837633.8920562909,0.28904298963704783
447.50000000003325,27917.05105097034,35658.00606884512,-6.403499897855348,-1149.6711659672005,836034.9405490825,1.0
447.6000000000333,27916.408585466026,35542.987333710735,-6.424655043147061,-1150.1873513438775,835939.00345865,0.06000000000000001
447.7000000000333,27915.767115526603,35428.564056396215,-6.414699394224636,-1144.2327731451812,834340.0519514416,1.0
447.8000000000333,27915.123990607248,35314.22845552884,-6.431249193538921,-1143.3560086736968,833921.60893096,0.26169838084222374
447.90000000003334,27914.480830501914,35200.49008864895,-6.4316010533394445,-1137.3836687989672,832322.6574237515,1.0
448.00000000003337,27913.83530273264,35086.700518034304,-6.455277692718025,-1137.8957061464264,832226.720333319,0.06000000000000001
448.1000000000334,27913.18867074653,34973.50970685388,-6.466319861112284,-1131.908111804192,830627.7688261106,1.0
448.2000000000334,27912.539716825533,34860.40330783725,-6.489539209989918,-1131.0639901663037,830219.2680265917,0.2554804180597311
448.30000000003344,27911.888562167464,34747.89745428579,-6.511546580699204,-1125.0585355146284,828620.3165193833,1.0
448.40000000003346,27911.234773746615,34635.34082598867,-6.537884208482275,-1125.566282971182,828524.3794289508,0.06000000000000001
448.5000000000335,27910.57764877389,34523.38628462397,-6.571249727240329,-1119.5454136470212,826925.4279217424,1.0
448.6000000000335,27909.917596298117,34411.46947935249,-6.600524757739996,-1119.1680527147864,826626.5827683964,0.18690069836319068
448.7000000000335,27909.253040191314,34300.15647538867,-6.645561068044505,-1113.1300396382148,825027.631261188,1.0
448.80000000003355,27908.585567874867,34188.79313764413,-6.674723164480118,-1113.6333774454702,824931.6941707555,0.06000000000000001
448.9000000000336,27907.912386129112,34078.035158330924,-6.731817457562008,-1107.5797931319905,823332.742663547,1.0
449.0000000000336,27907.23530039788,33967.39666217691,-6.770857312316474,-1106.3849615401887,822848.7524808679,0.3026922208066771
449.1000000000336,27906.551268990832,33857.36540914888,-6.84031407046884,-1100.312530280269,821249.8009736595,1.0
449.20000000003364,27905.864027498814,33747.28428772585,-6.872414920188507,-1100.811214230261,821153.863883227,0.06000000000000001
449.30000000003366,27905.16856120375,33637.811985249275,-6.954662950638818,-1094.7230247657724,819554.9123760186,1.0
449.4000000000337,27904.469728327666,33528.29004915024,-6.988328760861332,-1095.2193609904016,819458.9752855861,0.06000000000000001
449.5000000000337,27903.761353666887,33419.37851544279,-7.083746607775352,-1089.1153370744444,817860.0237783777,1.0
449.60000000003373,27903.049151895502,33310.447280369335,-7.122017713841089,-1089.312350734555,817696.591139504,0.10221237988578832
449.70000000003375,27902.326053466706,33202.12809472295,-7.230984287970045,-1083.1918564638443,816097.6396322956,1.0
449.8000000000338,27901.59854085477,33093.82052946958,-7.275126119340303,-1083.0756525337451,815863.8598378401,0.14620818292589594
449.9000000000338,27900.858737841318,32986.126727030394,-7.398030134551346,-1076.9380243918586,814264.9083306317,1.0
450.0000000000338,27900.115078248407,32878.38402452971,-7.436595929095246,-1077.427025006833,814168.9712401992,0.06000000000000001
450.10000000003384,27899.35769233911,32771.25669085204,-7.5738590930056775,-1071.2733367767116,812570.0197329908,1.0
450.20000000003387,27898.595158577635,32664.15209010943,-7.625337614724319,-1071.0460074260714,812312.8558733248,0.1608328073157127
450.3000000000339,27897.817422811848,32557.66460451883,-7.777357657855863,-1064.87485590597,810713.9043661164,1.0
450.4000000000339,27897.03542030368,32451.12872806498,-7.820025081688876,-1065.3587645384898,810617.9672756839,0.06000000000000001
450.50000000003394,27896.2366317923,32345.211586356458,-7.987885113814984,-1059.171417085231,809019.0157684755,1.0
450.60000000003396,27895.43339286102,32239.24631378381,-8.03238931279491,-1059.652725726498,808923.078678043,0.06000000000000001
450.700000000034,27894.611802618456,32133.901402094194,-8.215902425660687,-1053.449116896158,807324.1271708346,1.0
450.800000000034,27893.78448794486,32028.558782494638,-8.273146735955502,-1053.4261959955618,807115.6125751494,0.1304070791047216
450.900000000034,27892.937216682385,31923.83824523693,-8.472712624754864,-1047.2053725770904,805516.661067941,1.0
451.00000000003405,27892.085123955174,31819.070101418354,-8.520927272103997,-1047.6814381857507,805420.7239775085,0.06000000000000001
451.1000000000341,27891.211425431662,31714.925669145916,-8.736985235104699,-1041.4443227243942,803821.7724703001,1.0
451.2000000000341,27890.332714732136,31610.73389366236,-8.787106995242233,-1041.9177548355608,803725.8353798676,0.06000000000000001
451.3000000000341,27889.430651492097,31507.16746496964,-9.020632400380816,-1035.6642869272066,802126.8838726592,1.0
451.40000000003414,27888.523159161094,31403.55396241966,-9.074923310032359,-1036.1350254998015,802030.9467822267,0.06000000000000001
451.50000000003416,27887.590257105974,31300.567449646056,-9.32902055119428,-1029.8651277360618,800431.9952750183,1.0
451.6000000000342,27886.651398445567,31197.53413766381,-9.38858660407519,-1030.333119822472,800336.0581845858,0.06000000000000001
