time[s],x[m],y[m],vx[m/s],vy[m/s],theta[rad],theta_dot[rad/s],gamma[rad],alpha[rad],mass[kg],mass_propellant[kg]
41.100000000000314,342.2043309728162,8276.051009203167,21.584132730901924,338.4862270036656,1.498753813540072,-0.005549861943237386,1.5071158956626853,-0.008362082122613357,4632855.651734301,3165015.219618532
41.200000000000315,344.37445680481864,8309.965507244171,21.701258320024394,339.14498041003327,1.4981966743265045,-0.005571392135674872,1.5068953002512344,-0.00869862592472992,4630699.817017504,3162859.384901735
41.30000000000032,346.5564141611636,8343.946202119543,21.819573563449996,339.8069487537185,1.4976374549617315,-0.005592193647730817,1.5066726847298237,-0.009035229768092234,4628540.8179940665,3160700.3858782975
41.40000000000032,348.75032283647084,8377.993417016743,21.93908675307208,340.4721489720096,1.4970762282090766,-0.005612267526549361,1.5064480463574126,-0.009371818148335986,4626378.637330004,3158538.205214235
41.50000000000032,350.95630357824166,8412.10747804975,22.059807417708164,341.14061033004936,1.4965130674895253,-0.005631607195513749,1.5062213812950043,-0.009708313805478985,4624213.2418221915,3156372.8097064225
41.60000000000032,353.1744782010966,8446.288715511962,22.181746228549002,341.81237462213284,1.4959480473912015,-0.00565020098323774,1.5059926849727032,-0.010044637581501759,4622044.582398363,3154204.1502825944
41.70000000000032,355.40496945463036,8480.537462362681,22.30491253533771,342.48746850718214,1.4953812433449154,-0.005668040462859778,1.505761954066579,-0.010380710721663577,4619872.629273363,3152032.1971575944
41.800000000000324,357.64790074812066,8514.854051515245,22.429312934903024,343.16589152563483,1.4948127304675733,-0.005685128773420458,1.5055291883188504,-0.010716457851277061,4617697.388550707,3149856.956434938
41.900000000000325,359.90339625577735,8549.238816964931,22.554955076566873,343.84765449685466,1.4942425840626472,-0.005701464049261039,1.5052943866903974,-0.011051802627750185,4615518.851685473,3147678.4195697038
42.00000000000033,362.17158086515155,8583.692093307482,22.681846093742063,344.53276342550964,1.4936708795783484,-0.0057170448429886105,1.5050575488781957,-0.011386669299847219,4613337.016724535,3145496.5846087663
42.10000000000033,364.45258029342597,8618.21421693856,22.8099942827444,345.22123631079467,1.4930976931255742,-0.005731864527743723,1.5048186736533782,-0.011720980527804015,4611151.8648690665,3143311.4327532975
42.20000000000033,366.7465214305982,8652.805528990953,22.939411371722098,345.91312052393533,1.492523104078947,-0.00574589046627012,1.504577755699229,-0.012054651620281964,4608963.340455004,3141122.908339235
42.30000000000033,369.05353186544863,8687.466371266208,23.07010434850419,346.6084227525458,1.4919471919752312,-0.005759121037159428,1.5043347958370201,-0.012387603861788943,4606771.44030852,3138931.0081927506
42.40000000000033,371.3737395873925,8722.197083563351,23.202077219438877,347.3071229714275,1.491370035081107,-0.005771568941241402,1.5040897984568737,-0.012719763375766746,4604576.196412035,3136735.7642962663
42.500000000000334,373.7072734228098,8756.99800991413,23.33533835417294,348.00926350779696,1.4907917094508123,-0.005783256302947716,1.5038427674602108,-0.013051058009398542,4602377.559205004,3134537.127089235
42.600000000000335,376.05426316063284,8791.86950119995,23.469897378230392,348.714912858192,1.4902122874309784,-0.005794220198338871,1.5035937084047317,-0.013381420973753277,4600175.446167895,3132335.0140521256
42.70000000000034,378.41483926089774,8826.811908679576,23.605761002648677,349.4240747962535,1.4896318420921524,-0.005804453388260116,1.5033426229713525,-0.01371078087920008,4597969.857788988,3130129.4256732194
42.80000000000034,380.78913261689064,8861.825582251617,23.74293355992921,350.1367357204012,1.4890504456743068,-0.005813964178454935,1.503089516377971,-0.01403907070366417,4595760.8179940665,3127920.3858782975
42.90000000000034,383.1772748803367,8896.910874387584,23.88142263446094,350.85292135967853,1.4884681698185493,-0.0058227585575736165,1.502834392256312,-0.014366222437762755,4593548.29968352,3125707.8675677506
43.00000000000034,385.57939795575834,8932.068134634917,24.02123075421611,351.5726024733385,1.4878850847458953,-0.005830850726539835,1.502577258091733,-0.014692173345837611,4591332.34680266,3123491.9146868913
43.10000000000034,387.9956343136822,8967.297712696998,24.162363579238612,352.2957806208058,1.4873012606102949,-0.005838241356004062,1.502318118467245,-0.015016857856950061,4589112.963257738,3121272.5311419694
43.200000000000344,390.42611730565415,9002.59996134614,24.30482991971924,353.0224864914228,1.4867167691765333,-0.005844914337615252,1.5020569748302957,-0.015340205653762373,4586890.115601488,3119049.6834857194
43.300000000000345,392.8709813960419,9037.97523930865,24.448640903877223,353.7527796250794,1.486131683745146,-0.005850854313874066,1.5017938279204999,-0.015662144175353943,4584663.732788988,3116823.3006732194
43.40000000000035,395.33036156664923,9073.423905606549,24.593801706073737,354.48666297899223,1.4855460768924968,-0.005856068526491011,1.5015286844691873,-0.015982607576690455,4582433.817261645,3114593.3851458756
43.50000000000035,397.8043938590971,9108.946329301105,24.74032292447865,355.2242369455536,1.4849600149225923,-0.005860619699045825,1.501261555103549,-0.016301540180956753,4580200.24524016,3112359.8131243913
43.60000000000035,400.29321491104844,9144.54288107703,24.8882105195133,355.9655177592587,1.4843735630010284,-0.005864519215639583,1.50099244730687,-0.016618884305841686,4577963.00305266,3110122.5709368913
43.70000000000035,402.79696286190347,9180.21394069127,25.037479508550337,356.710596142402,1.4837867902344333,-0.0058677276659523814,1.5007213579969532,-0.016934567762519892,4575721.978882738,3107881.5467669694
43.80000000000035,405.31577628712006,9215.959887271056,25.188134252165923,357.459465797855,1.483199765463193,-0.005870247712403709,1.5004482951592335,-0.017248529696040515,4573477.188111254,3105636.755995485
43.900000000000354,407.84979422223165,9251.781100363558,25.340179351115772,358.2121309250147,1.4826125560070864,-0.005872094561066063,1.5001732682192166,-0.01756071221213018,4571228.63195891,3103388.1998431413
44.000000000000355,410.39915647790724,9287.67796251061,25.493622556755795,358.96862147051297,1.4820252297706733,-0.005873262364131518,1.4998962830014253,-0.017871053230752,4568976.2789315665,3101135.8468157975
44.10000000000036,412.9640037751733,9323.650860568998,25.648472972660702,359.72898058388506,1.481437855538778,-0.0058737423189537605,1.4996173443674958,-0.018179488828717894,4566720.080201098,3098879.6480853288
44.20000000000036,415.54447731163054,9359.70018153333,25.804735364572583,360.4932096433161,1.4808505020234777,-0.005873535153001818,1.4993364611223192,-0.018485959098841542,4564460.041138598,3096619.6090228288
44.30000000000036,418.14071767925174,9395.826302705053,25.962403676211675,361.26121171722906,1.4802632341890942,-0.005872678343834481,1.499053652476788,-0.018790418287693678,4562196.293580004,3094355.861464235
44.40000000000036,420.7528663080013,9432.029605632832,26.121486287495607,362.0330292777832,1.4796761173267405,-0.005871168623537263,1.4987689252712542,-0.019092807944513623,4559928.789917895,3092088.3578021256
44.50000000000036,423.38106721371156,9468.310493147626,26.282009057102975,362.80887514794085,1.4790892195077083,-0.005868978190321188,1.498482272458255,-0.019393052950546608,4557657.250611254,3089816.818495485
44.600000000000364,426.02546528395345,9504.669373085077,26.443980702418735,363.5887993745053,1.4785026072411547,-0.005866122665536551,1.4981937023621164,-0.019691095120961677,4555381.610230395,3087541.1781146256
44.700000000000365,428.6862058843413,9541.106653950617,26.607406003878264,364.37280865540725,1.4779163464631058,-0.00586260778048969,1.4979032256343638,-0.019986879171258076,4553101.86633391,3085261.4342181413
44.80000000000037,431.3634349157075,9577.622745396635,26.772290313661898,365.16091446018,1.4773305030986592,-0.005858433644466317,1.4976108523850942,-0.020280349286434962,4550818.011109301,3082977.578993532
44.90000000000037,434.0572987461614,9614.21805764603,26.93863830453896,365.95312249396085,1.4767451428996767,-0.005853601989825206,1.497316593499884,-0.020571450600207264,4548530.043580004,3080689.611464235
45.00000000000037,436.767944094626,9650.893000615386,27.106453484646224,366.749429693556,1.4761603310746192,-0.0058481182505752865,1.4970204613211944,-0.02086013024657518,4546237.973999926,3078397.541884157
45.10000000000037,439.4955179416002,9687.647983035953,27.27573846974233,367.5498242056761,1.4755761323937981,-0.005841986808211409,1.4967224688547132,-0.021146336460915016,4543941.824830004,3076101.392714235
45.20000000000037,442.2401678809462,9724.48341607952,27.446499393460247,368.3543304356672,1.474992611569231,-0.0058352082456726686,1.4964226268801324,-0.021430015310901496,4541641.571167895,3073801.1390521256
45.300000000000374,445.00204008465283,9761.399700734879,27.618722037065993,369.1628465535905,1.474409817405088,-0.005827941641429924,1.4961209756750178,-0.021711158269929864,4539337.351441332,3071496.919325563
45.400000000000375,447.78128210721184,9798.397247439152,27.792420225589854,369.97546704273293,1.4738278010573904,-0.005820163476975552,1.4958175192140997,-0.021989718156709248,4537029.050660082,3069188.618544313
45.50000000000038,450.5780430626964,9835.476477508537,27.967609554845858,370.7923006938468,1.4732466165305216,-0.005811845268687489,1.4955122600171977,-0.022265643486676145,4534716.535767504,3066876.103651735
45.60000000000038,453.39247301613324,9872.637817586645,28.144299534368326,371.6134007810798,1.4726663192952882,-0.005802972352332539,1.4952052061024166,-0.022538886807128344,4532399.7457284415,3064559.3136126725
45.70000000000038,456.22472408109996,9909.88170973513,28.322510649667144,372.4389214848431,1.4720869683632816,-0.005793509320067647,1.4948963569054259,-0.022809388542144315,4530078.489624926,3062238.057509157
45.80000000000038,459.0749489075288,9947.208597656232,28.502248264288028,373.26887921102343,1.4715086230528862,-0.00578345310395247,1.4945857247672583,-0.02307710171437205,4527752.754273363,3059912.3221575944
45.90000000000038,461.94330092493266,9984.618929277272,28.68352017403859,374.10331621039995,1.4709313429594708,-0.0057728009341547,1.494273320908339,-0.023341977948868164,4525422.492798754,3057582.060682985
46.000000000000384,464.82993362171453,10022.113151704865,28.866326967818637,374.9422242759312,1.470355183818273,-0.0057615914119790905,1.4939591655305489,-0.023603981712275957,4523087.723511645,3055247.2913958756
46.100000000000385,467.73500145990914,10059.691718352648,29.050678381945996,375.7856664778244,1.4697802016288284,-0.005749821894445767,1.4936432691355692,-0.02386306750674083,4520748.373658129,3052907.94154236
46.20000000000039,470.65866026127804,10097.355092618714,29.236588013688937,376.63374266067314,1.469206452888001,-0.005737487408274479,1.4933256398175963,-0.02411918692959536,4518404.32312102,3050563.8910052506
46.30000000000039,473.6010666637673,10135.103744809083,29.42406402489264,377.4865219036919,1.4686339900261773,-0.005724628618236037,1.4930062940645936,-0.02437230403841628,4516055.492310473,3048215.0601947038
46.40000000000039,476.5623787868287,10172.938155483664,29.613121230613753,378.34410674580823,1.4680628676585508,-0.005711223676265303,1.492685237983038,-0.02462237032448722,4513701.757935473,3045861.3258197038
46.50000000000039,479.5427554128392,10210.85880821217,29.803766260105007,379.2065272850539,1.4674931411163685,-0.005697265421823224,1.4923624846391523,-0.024869343522783804,4511343.090210863,3043502.6580950944
46.60000000000039,482.542355279515,10248.866186088608,29.995998666757686,380.07377876437863,1.4669248598514353,-0.005682812649332098,1.4920380585265198,-0.025113198675084547,4508979.504273363,3041139.0721575944
46.700000000000394,485.5613387104462,10286.960784027404,30.189834309312243,380.9459793879562,1.4663580743770515,-0.0056678547438371585,1.4917119669154357,-0.02535389253838427,4506610.857788988,3038770.4256732194
46.800000000000395,488.5998682955384,10325.14311402624,30.38529585092203,381.82329998834746,1.4657928386238215,-0.005652357532298927,1.4913842107395208,-0.025591372115699285,4504236.941773363,3036396.5096575944
46.9000000000004,491.65810624965496,10363.413683179495,30.5823795411657,382.7056915325494,1.4652292033937988,-0.0056363523002262465,1.491054814611056,-0.02582561121725724,4501857.828492113,3034017.3963763444
47.0000000000004,494.7362140658389,10401.772991501948,30.781078161839527,383.59308322453717,1.464667214450738,-0.005619889430607429,1.490723807340257,-0.026056592889518893,4499473.6168221915,3031633.1847064225
47.1000000000004,497.8343518720857,10440.221524483884,30.981378062467424,384.4853298193637,1.4641069158958575,-0.005602985548805042,1.4903912184759998,-0.02628430258014225,4497084.501343676,3029244.069227907
47.2000000000004,500.9526802301337,10478.759769250815,31.183283580479966,385.38244766931297,1.4635483521644619,-0.005585637313956481,1.4900570642516224,-0.026508712087160546,4494690.469361254,3026850.037245485
47.3000000000004,504.0913617320165,10517.388229822143,31.38681501882761,386.2846057132899,1.4629915672314853,-0.005567849329766207,1.4897213517546306,-0.02672978452314534,4492291.31555266,3024450.8834368913
47.400000000000404,507.2505613253323,10556.10743033587,31.59199593315828,387.1920051372504,1.462436603918612,-0.005549633128732633,1.489384087124384,-0.026947483205771894,4489886.793580004,3022046.361464235
47.500000000000405,510.43044513382506,10594.9179037961,31.798838084927528,388.10473460231975,1.461883504217808,-0.005530997008040243,1.4890452838625614,-0.027161779644753414,4487476.800660082,3019636.368544313
47.600000000000406,513.6311804559263,10633.820190970504,32.0073532210114,389.0228717440422,1.4613323115824712,-0.0055119263533671544,1.4887049535051593,-0.027372641922688068,4485061.248169848,3017220.8160540788
47.70000000000041,516.8529346417556,10672.814832257185,32.21754185829301,389.946412866812,1.460783066431001,-0.0054924515147019345,1.4883631193709979,-0.02758005293999677,4482640.151001879,3014799.71888611
47.80000000000041,520.0958737218705,10711.902355728635,32.429390801148365,390.8752347145013,1.4602358054493938,-0.0054726098160718765,1.488019814311416,-0.027784008862022258,4480213.675904223,3012373.2437884538
47.90000000000041,523.3601627934424,10751.083280964414,32.6428907157195,391.80925235779,1.4596905614218416,-0.00545244027552232,1.487675068860824,-0.027984507438982398,4477781.940796801,3009941.508681032
48.00000000000041,526.6459689488938,10790.358143100324,32.858061554513746,392.7486213590903,1.4591473683971832,-0.005431930246583902,1.4873288899048058,-0.028181521507622653,4475344.758179613,3007504.3260638444
48.10000000000041,529.9534612739512,10829.727495026418,33.07492325057383,393.69351926093674,1.4586062565732452,-0.005411118239380311,1.4869812896392465,-0.02837503306600131,4472901.9136971915,3005061.4815814225
48.200000000000415,533.2828095223343,10869.191893100606,33.29348248383105,394.64398074187943,1.458067257484837,-0.005389990884082057,1.4866322839131694,-0.028565026428332363,4470453.374390551,3002612.942274782
48.300000000000416,536.6341857976325,10908.751911062738,33.51376275298189,395.6001796213195,1.4575304059329128,-0.005368515519242238,1.4862818760412915,-0.02875147010837864,4467998.930542895,3000158.4984271256
48.40000000000042,540.0077632719392,10948.408130853062,33.73577474306704,396.5621979032448,1.4569957352695155,-0.0053467066339726,1.485930082573497,-0.028934347303981367,4465538.490357348,2997698.0582415788
48.50000000000042,543.4037180609147,10988.16116076204,33.95954788975526,397.5302990897798,1.4564632734497072,-0.005324618198082627,1.4855769122095115,-0.029113638759804328,4463071.732544848,2995231.3004290788
48.60000000000042,546.8222288948606,11028.011636260424,34.185108339458715,398.50475498384424,1.455933034326564,-0.0053023912314315545,1.4852223845967465,-0.029289350270182535,4460598.326783129,2992757.89466736
48.70000000000042,550.2635018045514,11067.960426752654,34.412729096908166,399.48790492230387,1.4554050330275767,-0.0052800129898731936,1.4848663494426035,-0.029461316415026806,4458115.339722582,2990274.907606813
48.80000000000042,553.7278395741813,11108.009228719244,34.64337769629907,400.4880196659037,1.4548792925604666,-0.005257404671102045,1.4845082167691537,-0.029628924208687124,4455612.378296801,2987771.946181032
48.900000000000425,557.2156027003998,11148.160225113223,34.87763126218519,401.50996393978875,1.4543558302107238,-0.005234623497428228,1.4841476662577786,-0.02979183604705482,4453083.3511971915,2985242.9190814225
49.000000000000426,560.7271603322589,11188.415659707618,35.115576318590854,402.55434594395444,1.4538346570393046,-0.005211731714192456,1.483784693174231,-0.029950036134926306,4450527.538941332,2982687.106825563
49.10000000000043,564.2628671258713,11228.77764347716,35.357067936123855,403.61983769541797,1.4533157686093274,-0.0051888842997717425,1.4834194478979161,-0.030103679288588703,4447946.658814379,2980106.22669861
49.20000000000043,567.823079307549,11269.248279299201,35.60212181677784,404.70635822041805,1.452799175112426,-0.0051659349690127985,1.4830519502727715,-0.030252775160345413,4445340.856324145,2977500.4242083756
49.30000000000043,571.4081436140652,11309.8295700981,35.85064306516175,405.81290798898664,1.452284898526461,-0.005142765859651539,1.4826822923615877,-0.03039739383512674,4442711.430787035,2974870.9986712663
49.40000000000043,575.0184027242742,11350.523472757532,36.102591102090045,406.9390265943108,1.451772957216888,-0.005119413095729663,1.4823105464321111,-0.030537589215223093,4440059.003296801,2972218.571181032
49.50000000000043,578.6541693512474,11391.331682820413,36.357666269732924,408.0821006288158,1.451263364551464,-0.005095926654240102,1.481936946408141,-0.030673581856677012,4437386.895630785,2969546.4635150163
49.600000000000435,582.3157526976167,11432.255862140195,36.61583346369324,409.2417931978194,1.4507561200612265,-0.005072444902377294,1.4815615669657858,-0.03080544690455933,4434695.567749926,2966855.135634157
49.700000000000436,586.0034495235031,11473.297553295844,36.87696825886439,410.4169115564877,1.4502512370932845,-0.005048829679418853,1.481184511163048,-0.030933274069763428,4431986.549439379,2964146.11732361
49.80000000000044,589.7175531625081,11514.45826398252,37.14103639004971,411.6071068667617,1.4497487238161204,-0.005025132771640443,1.480805843129742,-0.03105711931362154,4429260.312378832,2961419.880263063
49.90000000000044,593.4583456955897,11555.739399989468,37.407925330816234,412.8113600694861,1.4492485904197918,-0.0050013339632852954,1.4804256674477236,-0.03117707702793182,4426518.164917895,2958677.7328021256
50.00000000000044,597.2261078729586,11597.142349042877,37.67762177368839,414.0294905340787,1.4487508463998722,-0.004977440199195505,1.4800440291436214,-0.03129318274374926,4423760.363892504,2955919.931776735
50.10000000000044,601.0211198795085,11638.668487412475,37.95012006549993,415.26138369597527,1.448255500427323,-0.0049534597254914745,1.4796609684901707,-0.03140546806284772,4420987.083374926,2953146.651259157
50.20000000000044,604.8436576736881,11680.319150889754,38.22537794179516,416.506634772788,1.4477625592312557,-0.004929411960672335,1.479276548902414,-0.03151398967115826,4418198.860230395,2950358.4281146256
50.300000000000445,608.6939850620487,11722.095571941994,38.503273883606035,417.76421052240715,1.4472720261268037,-0.004905331044519099,1.4788908824461744,-0.03161885631937067,4415397.015015551,2947556.582899782
50.400000000000446,612.5723668363145,11763.998986527928,38.78381774265833,419.0341458593385,1.4467839017043733,-0.0048812442243049425,1.4785039993354372,-0.03172009763106387,4412581.531861254,2944741.099745485
