time[s],x[m],y[m],vx[m/s],vy[m/s],theta[rad],theta_dot[rad/s],gamma[rad],alpha[rad],mass[kg],mass_propellant[kg]
449.7000000000337,26080.495627918524,40290.78059257148,-18.22751468435646,-1637.7480339387087,1.5637732396589805,-0.03219000055601298,4.701259819025403,-3.137486579366423,972944.523250175,526109.8792364636
449.8000000000337,26078.69193972366,40127.47242002139,-18.03688194865661,-1633.0817255008926,1.560312539139599,-0.034607005193814044,4.701344739113783,-3.141032199974184,971408.6752277141,524574.0312140026
449.90000000003374,26076.895805320743,39964.634843735614,-17.96134402918922,-1628.3757628577298,1.5568262393052925,-0.0348629983430664,4.70135920699631,-3.1445329676910174,969872.8272052532,523038.1831915417
450.00000000003376,26075.098488709908,39802.2673979831,-17.973166108336777,-1623.6744575251348,1.5534847514238674,-0.03341487881425155,4.701319993014669,-3.147835241590802,968336.9791827922,521502.33516908076
450.1000000000338,26073.283523520906,39640.36741837897,-18.14965189001177,-1618.9997960413036,1.5505782012071347,-0.02906550216732785,4.701179039726979,-3.150600838519844,966801.1311603313,519966.4871466198
450.2000000000338,26071.437925669627,39478.933128620556,-18.455978512798087,-1614.3428975841728,1.5483360752506,-0.02242125956534831,4.700956976363077,-3.1526209011124773,965265.2831378704,518430.6391241589
450.30000000003383,26069.551672209116,39317.96322213998,-18.862534605109776,-1609.6990648057676,1.546933944684776,-0.014021305658237832,4.700671466388801,-3.1537375217040253,963729.43535955,516894.7913458386
450.40000000003386,26067.618606207412,39157.4572167575,-19.330660017022602,-1605.0600538247704,1.5464783836778635,-0.00455561006912512,4.700345988329772,-3.153867604651909,962193.5873370891,515358.94332337764
450.5000000000339,26065.637114905672,38997.415648337585,-19.81491301740716,-1600.415684199179,1.5469961501010594,0.005177664231958128,4.700008508974249,-3.1530123588731893,960657.7393146282,513823.0953009167
450.6000000000339,26063.61041746991,38837.84013014769,-20.266974357626342,-1595.7551818989602,1.548430164501294,0.014340144002344006,4.699689109516118,-3.151258945014824,959121.8912921672,512287.24727845576
450.7000000000339,26061.546406719117,38678.73327093428,-20.640107507939355,-1591.0685921341162,1.5506430731012604,0.022129085999664868,4.699417226735491,-3.148774153634231,957586.0432697063,510751.3992559948
450.80000000003395,26059.457067009465,38520.09841891717,-20.893397096530606,-1586.3485201710882,1.5534279393628598,0.02784866261599435,4.699218993562493,-3.1457910541996332,956050.1952472454,509215.5512335339
450.90000000003397,26057.358327690523,38361.939319592646,-20.98739318941625,-1581.590993245238,1.5565126585595601,0.030847191967003192,4.699119961064048,-3.142607302504488,954514.3472247844,507679.70321107295
451.000000000034,26055.264002065782,38204.2602981198,-20.943256247421036,-1576.7902147284628,1.5596565356776948,0.03143877118134688,4.699107552963599,-3.1394510172859045,952978.4992023235,506143.855188612
451.100000000034,26053.184305238407,38047.061334298654,-20.796968273755176,-1571.9896382114189,1.562674042649866,0.03017506972171107,4.699160041361076,-3.13648599871121,951442.6511798626,504608.0071661511
451.20000000003404,26051.135955193135,37890.33896403816,-20.483500452701637,-1567.2237026049547,1.5652814822392453,0.026074395893794414,4.699319796842403,-3.134038314603157,949906.8031574016,503072.15914369014
451.30000000003406,26049.133552543204,37734.09099492212,-20.024026499302074,-1562.4796911604024,1.5672332768531845,0.019517946139391656,4.699574138384376,-3.1323408615311914,948370.9551349407,501536.3111212292
451.4000000000341,26047.187628899068,37578.315907956116,-19.459236441349322,-1557.7508696600091,1.5683533804694678,0.011201036162833137,4.699897750413609,-3.131544369944141,946835.1071124797,500000.46309876826
451.5000000000341,26045.303769711598,37423.01329660484,-18.838591874708417,-1553.0261135127857,1.5685494671795999,0.001960867101320282,4.70025932731323,-3.13170986013363,945299.2590900188,498464.6150763073
451.60000000003413,26043.481941634553,37268.184088273294,-18.218280770443013,-1548.2920833154656,1.5678231388389257,-0.0072632834067420035,4.700622828356984,-3.132799689518058,943763.4110675579,496928.7670538464
451.70000000003415,26041.716390841226,37113.83054473565,-17.655507933278404,-1543.5354353764408,1.5662706386114245,-0.015525002275012828,4.7009511231142085,-3.134680484502784,942227.5630450969,495392.91903138545
451.8000000000342,26039.996134975285,36959.95602490553,-17.202558659423296,-1538.7451983011777,1.5640738583010667,-0.021967803103578494,4.70120984425903,-3.1371359859579635,940691.715022636,493857.0710089245
451.9000000000342,26038.305380324186,36806.56458020072,-16.907546511007162,-1533.9144470480958,1.5614918544092855,-0.02582003891781245,4.701366943356999,-3.139875088947713,939155.867000175,492321.2229864636
452.0000000000342,26036.62790975372,36653.66152033231,-16.774705704670428,-1529.0305986840788,1.558792287759642,-0.02699566649643438,4.701418609501456,-3.1426263217418136,937620.0189777141,490785.37496400264
452.10000000003424,26034.952662465417,36501.248405839826,-16.752472883017695,-1524.1311449248424,1.556164829679068,-0.026274580805740057,4.701397932567293,-3.1452331028882248,936084.1709552532,489249.5269415417
452.20000000003427,26033.266155068148,36349.322869605065,-16.86507397268835,-1519.2553623476,1.553832754469036,-0.023320752100320565,4.701288554687181,-3.1474558002181454,934548.3229327922,487713.67891908076
452.3000000000343,26031.550588326438,36197.88242885941,-17.155667417096737,-1514.4044074565184,1.552079359146995,-0.017533953220410736,4.701061138547154,-3.1489817794001596,933012.4749103313,486177.8308966198
452.4000000000343,26029.794403793203,36046.92585450947,-17.561845332355094,-1509.56574349944,1.5510889106406915,-0.00990448506303486,4.700755798338412,-3.1496668876977205,931476.6268878704,484641.9828741589
452.50000000003433,26027.991843320397,35896.45294145718,-18.025604728074516,-1504.7291305229098,1.5509525523908887,-0.0013635824980280688,4.700410251329853,-3.149457698938964,929940.7788654094,483106.13485169795
452.60000000003436,26026.143585522233,35746.464750708714,-18.482577981615496,-1499.88190748467,1.551659134902048,0.007065825111594712,4.700066915256505,-3.148407780354457,928404.9308429485,481570.286829237
452.7000000000344,26024.256716191954,35596.9635596004,-18.868693302775313,-1495.0119110831627,1.5530966424943211,0.01437507592273004,4.699768551490131,-3.1466719089958097,926869.0828204876,480034.4388067761
452.8000000000344,26022.34417206696,35447.95252932283,-19.12544124993065,-1490.1103027757354,1.5550620159258994,0.01965373431578388,4.699554768643632,-3.144492752717733,925333.2347980266,478498.59078431514
452.9000000000344,26020.425264647456,35299.43668461363,-19.189074195042664,-1485.1584470919292,1.55725616180865,0.02194145882750468,4.699469142419597,-3.142212980610947,923797.3867755657,476962.7427618542
453.00000000003445,26018.511161626746,35151.41926865913,-19.14103020709957,-1480.1741595450767,1.559497692137497,0.022415303288470786,4.699458094361236,-3.139960402223739,922261.5387531047,475426.89473939326
453.10000000003447,26016.612982865445,35003.90023538364,-18.98178761302182,-1475.1903327548805,1.5616058786597948,0.021081865222977735,4.699522342297843,-3.1379164636380485,920725.6907306438,473891.0467169323
453.2000000000345,26014.744702007858,34856.876516979435,-18.682808575878177,-1470.237184042077,1.5633606016306199,0.01754722970824969,4.699682321034687,-3.136321719404067,919189.8427081829,472355.1986944714
453.3000000000345,26012.922204325794,34710.34579129573,-18.22497682063044,-1465.3072568370142,1.5645188274969222,0.011582258663023658,4.69995197302582,-3.135433145528898,917653.9946857219,470819.35067201045
453.40000000003454,26011.15393301032,34564.307342385444,-17.68271315474981,-1460.3844891029028,1.5649512723927543,0.004324448958322325,4.7002813133908745,-3.13533004099812,916118.146663261,469283.5026495495
453.50000000003456,26009.441538365507,34418.76177337634,-17.123946448135406,-1455.4556900910254,1.5646330071434615,-0.0031826524929274205,4.700624172626124,-3.135991165482663,914582.2986408,467747.6546270886
453.6000000000346,26007.779783418933,34273.711046348915,-16.617549465745565,-1450.5072702742823,1.5636440255042197,-0.009889816392419717,4.700933110528403,-3.1372890850241837,913046.4508624797,466211.80684876826
453.7000000000346,26006.156633517377,34129.15831693967,-16.23149901554593,-1445.5272940924788,1.5621663549057982,-0.014776705984214237,4.701160678471142,-3.1389943235653437,911510.6028400188,464675.9588263073
453.80000000003463,26004.55524365886,33985.108962094855,-16.013898585195346,-1440.4935484481402,1.5604536007390317,-0.017127541667665887,4.7012724856596195,-3.140818884920588,909974.7548175579,463140.1108038464
453.90000000003465,26002.965099088913,33841.56625680331,-15.901445699446603,-1435.4270529154471,1.558670155937564,-0.017834448014677595,4.701311583420168,-3.1426414274826038,908438.9067950969,461604.26278138545
454.0000000000347,26001.37530730106,33698.53116619827,-15.897917878547965,-1430.3509060503397,1.5569850431465035,-0.016851127910604117,4.701274740374011,-3.1442896972275074,906903.058772636,460068.4147589245
454.1000000000347,25999.775668578783,33556.00233244263,-15.99638722275351,-1425.2883375563838,1.5555552191220863,-0.014298240244173728,4.701166187628848,-3.145610968506762,905367.210750175,458532.5667364636
454.2000000000347,25998.151114727443,33413.977023944986,-16.24553851338541,-1420.253084976437,1.5546022880066819,-0.009529311154044932,4.70095099779909,-3.1463487097924085,903831.3627277141,456996.71871400264
454.30000000003474,25996.49252302704,33272.45466885569,-16.585917004045452,-1415.2235508929973,1.554259841987159,-0.0034244601952295676,4.700669872334795,-3.146410030347636,902295.5147052532,455460.8706915417
454.40000000003477,25994.79859869127,33131.4360020352,-16.939243357676343,-1410.1866682048428,1.5545469181115865,0.0028707612442757354,4.700377500563155,-3.1458305824515684,900759.6666827922,453925.02266908076
454.5000000000348,25993.075569186993,32990.92293455979,-17.2302950427811,-1405.1306747541123,1.5553731684805827,0.008262503689961266,4.70012718024843,-3.144754011767847,899223.8186603313,452389.1746466198
454.6000000000348,25991.337374005972,32850.91955833934,-17.381951810209394,-1400.0337622045386,1.556538212206007,0.011650437254241452,4.6999742377780125,-3.1434360255720053,897687.9706378704,450853.3266241589
454.70000000003483,25989.59405582631,32711.429509083053,-17.433181796640806,-1394.9004925628483,1.5578936323554762,0.013554201494691727,4.699891835020859,-3.1419982026653823,896152.1226154094,449317.47860169795
454.80000000003486,25987.855852028013,32572.45480003869,-17.382037982961222,-1389.7470904436202,1.5592873084330185,0.013936760775422625,4.699882293513606,-3.1405949850805874,894616.2745929485,447781.630579237
454.9000000000349,25986.132493113077,32433.996225794046,-17.2335891493791,-1384.5857424464505,1.5605744704170612,0.012871619840426696,4.699942875566112,-3.139368405149051,893080.4265704876,446245.7825567761
455.0000000000349,25984.433143383336,32296.052605334015,-16.993497297402968,-1379.4362046003223,1.5616196115923624,0.010451411753010873,4.700070442082757,-3.138450830490395,891544.8705402141,444710.22652650264
455.1000000000349,25982.76590134407,32158.62235191047,-16.672420392625412,-1374.3025342354133,1.5623046070886253,0.006849954962628034,4.700258025132058,-3.1379534180434328,890009.6464191204,443175.0024054089
455.20000000003495,25981.138586463265,32021.704172008074,-16.273148808083857,-1369.1817990239597,1.562518939854854,0.002143327662287496,4.700504230942949,-3.1379852910880945,888474.7546954876,441640.1106817761
455.30000000003497,25979.551137089835,31885.298917711196,-15.874493734302185,-1364.05254296879,1.5622633606353886,-0.0025557921946535627,4.700751762148959,-3.1384884015135706,886940.1958575969,440105.55184388545
455.400000000035,25977.996212549424,31749.40946890292,-15.549245404093869,-1358.8944880827594,1.5616406458686873,-0.006227147667011719,4.700946909671791,-3.139306263803104,885405.9718585735,438571.327844862
455.500000000035,25976.466799190017,31614.038301521206,-15.294133594056747,-1353.7116738171226,1.5607514848821018,-0.008891609865854957,4.701091535582092,-3.1403400506999906,883873.4707599407,437038.8267462292
455.60000000003504,25974.954618277687,31479.187742475428,-15.121809123302107,-1348.5055904577987,1.5597150061660603,-0.010364787160414439,4.701175697005641,-3.1414606908395806,882342.7874103313,435508.1433966198
455.70000000003506,25973.449570653615,31344.858815456042,-15.05047624071098,-1343.2892701938608,1.5586748508662056,-0.010401552998547942,4.701185253205531,-3.142510402339325,880813.9745441204,433979.3305304089
455.8000000000351,25971.94374119145,31211.05147544061,-15.058294621634735,-1338.0734001543156,1.5577445762631463,-0.009302746030593438,4.701135741977186,-3.14339116571404,879287.082210136,432452.4381964245
455.9000000000351,25970.42932306624,31077.764618563622,-15.144181252096578,-1332.8685687698758,1.5570344521145227,-0.007101241486235364,4.701027372821312,-3.14399292070679,877762.1587482219,430927.51473451045
456.00000000003513,25968.90078668584,30944.997027619116,-15.285363803997477,-1327.675909445077,1.5566221445751454,-0.004123075393774427,4.7008766162528985,-3.144254471677753,876239.250178886,429404.6061651745
456.10000000003515,25967.355638557874,30812.748063252075,-15.451481279684742,-1322.4896436704055,1.5565425907042965,-0.0007955387084899864,4.700705880761539,-3.144163290057243,874718.402522636,427883.7585089245
456.2000000000352,25965.79443676917,30681.018050903374,-15.612017887034717,-1317.3001234870144,1.5567880431998056,0.002454524955090908,4.700538008292284,-3.1437499650924785,873199.6648517376,426365.0208380261
456.3000000000352,25964.220549657162,30549.808120274425,-15.738871120087843,-1312.0993062895025,1.5573116900561406,0.005236468563350245,4.700394372773511,-3.1430826827173703,871683.0903888469,424848.44637513545
456.4000000000352,25962.64005200331,30419.1197760466,-15.804976538512271,-1306.88344227828,1.5580296851276179,0.007179950714772045,4.700295930943488,-3.14226624581587,870168.7363849407,423334.0923712292
456.50000000003524,25961.060884908038,30288.954177501288,-15.791670952724475,-1301.6559854531138,1.5588329453936267,0.00803260266008881,4.700257590500117,-3.14142464510649,868656.6627765422,421822.01876283076
456.60000000003527,25959.489957121656,30159.311229089402,-15.709277863826612,-1296.4294841188564,1.5596255747041121,0.007926293104853299,4.7002722326094855,-3.140646657905373,867146.929500175,420312.2854864636
456.7000000000353,25957.93578294808,30030.190457170313,-15.541741735762841,-1291.2077191909111,1.5602917103748095,0.0066613567069739405,4.700352968665016,-3.1400612582902068,865639.5934406047,418804.94942689326
456.8000000000353,25956.404456979613,29901.590784735556,-15.313259684645047,-1285.996724347587,1.5607482457826336,0.004565354078240906,4.700481845876494,-3.1397336000938605,864134.7108722454,417300.0668585339
456.90000000003533,25954.899502656208,29773.511310189228,-15.049543234039431,-1280.794745463278,1.5609471899799938,0.001989441973601237,4.700639361069552,-3.139692171089558,862632.3366046672,415797.69259095576
457.00000000003536,25953.421474186012,29645.951798317816,-14.780284701940833,-1275.595118714112,1.5608807989219347,-0.000663910580591336,4.700802527064472,-3.1399217281425376,861132.5272784954,414297.8832647839
457.1000000000354,25951.9682385382,29518.91268524288,-14.532356478112911,-1270.3911307493315,1.5605776308049213,-0.003031681170132845,4.700950201973092,-3.1403725711681707,859635.3433185344,412800.69930482295
457.2000000000354,25950.535000166954,29392.394904844445,-14.332383712467573,-1265.1778039843743,1.5601016138993604,-0.004760169055608627,4.701061109618124,-3.1409594957187634,858140.8485675579,411306.2045538464
457.3000000000354,25949.115373433535,29266.39939664724,-14.196267334202297,-1259.9550819720284,1.5595376119361009,-0.005640019632594841,4.701122176641649,-3.141584564705548,856649.1108966594,409814.46688294795
457.40000000003545,25947.701393693234,29140.92601155933,-14.139797403013574,-1254.7338508790756,1.5589902566225289,-0.005473553135720602,4.7011202966855015,-3.1421300400629724,855160.199397636,408325.5553839245
457.50000000003547,25946.288727919087,29015.97451351507,-14.126657741475025,-1249.5149804426358,1.5585178652361815,-0.004723913863474141,4.701083749056571,-3.1425658838203896,853674.1796222454,406839.5356085339
457.6000000000355,25944.872068147182,28891.543937938244,-14.166597719037634,-1244.305755768244,1.5581898102668408,-0.003280549693407537,4.701004330267453,-3.142814520000612,852191.1174884563,405356.4734747448
457.7000000000355,25943.448457662882,28767.633726755852,-14.236104843001215,-1239.1021118239396,1.5580447213037225,-0.0014508896311826716,4.700900436884945,-3.1428557155812227,850711.0770831829,403876.4330694714
457.80000000003554,25942.017241794307,28644.243428546833,-14.31215868575883,-1233.9029820901892,1.5580910860994786,0.0004636479575609257,4.7007904048910225,-3.1426993187915437,849234.1255450969,402399.48153138545
457.90000000003556,25940.580085057965,28521.373192364463,-14.371567363402761,-1228.7023618237092,1.5583073751399628,0.0021628904048419232,4.700692972891911,-3.1423855977519484,847760.3303790813,400925.6863653698
458.0000000000356,25939.14076165627,28399.022536427365,-14.39323401696041,-1223.5065593709828,1.5586449063788814,0.003375312389186371,4.700625602409482,-3.1419806960306005,846289.7643390422,399455.12032533076
458.1000000000356,25937.704496476257,28277.190904030747,-14.362651800113117,-1218.316323966166,1.5590366599680405,0.003917535891590295,4.700600591602447,-3.141563931634406,844822.49785955,397987.8538458386
458.20000000003563,25936.274409944195,28155.87860039553,-14.300865320634973,-1213.1230363521759,1.559441496783316,0.004048368152752879,4.700601055753025,-3.141159558969709,843358.6016193157,396523.9576056042
458.30000000003565,25934.856538779793,28035.084057855634,-14.178711644022679,-1207.9454253989554,1.559782749143194,0.003412523598780015,4.700651645046798,-3.140868895903604,841898.1519122844,395063.50789857295
458.4000000000357,25933.454899252793,27914.806855201336,-14.016395270011024,-1202.7720265429975,1.5600094100154833,0.0022666087228942955,4.700736098102963,-3.14072668808748,840441.21660955,393606.5725958386
458.5000000000357,25932.071507787725,27795.04635416896,-13.833914650675748,-1197.6050103237371,1.5600957952887282,0.000863852732448576,4.700838177506587,-3.140742382217859,838987.8698077922,392153.22579408076
458.6000000000357,25930.70624455491,27675.801962315327,-13.652632328140088,-1192.4439185363478,1.5600431358749571,-0.0005265941377107165,4.700940193900261,-3.1408970580253044,837538.18535955,390703.5413458386
458.70000000003574,25929.3570592738,27557.073485718596,-13.4918528111077,-1187.2847659673064,1.5598768564350654,-0.0016627943989170352,4.701025849567092,-3.1411489931320267,836092.2390704876,389257.5950567761
458.80000000003577,25928.020348831396,27438.859909649007,-13.367104424034366,-1182.1357606958939,1.559641461876375,-0.00235394558690301,4.701081874044413,-3.141440412168038,834650.109187675,387815.4651739636
458.9000000000358,25926.691514950937,27321.161182267508,-13.288338804588049,-1176.9872738150093,1.5593936029627653,-0.0024785891360958236,4.701099330500579,-3.141705727537814,833211.8704181438,386377.2264044323
459.0000000000358,25925.36926648988,27203.976624015686,-13.222484610554549,-1171.8455825182293,1.5591503157196638,-0.0024328724310162136,4.701105989090469,-3.1419556733708056,831777.6039386516,384942.95992494014
459.10000000003583,25924.049411112806,27087.30471921369,-13.19855377074513,-1166.7190480199538,1.5589626384967503,-0.00187677222913364,4.701076924740637,-3.142114286243887,830347.3878741985,383512.743860487
