time[s],x[m],y[m],vx[m/s],vy[m/s],theta[rad],theta_dot[rad/s],gamma[rad],alpha[rad],mass[kg],mass_propellant[kg]
449.7000000000337,26080.49571656325,40290.80389495536,-18.226628237105864,-1637.515010099893,1.5637732396589805,-0.03219000055601298,4.7012587767092855,-3.137485537050305,972881.4266925579,526046.7826788464
449.8000000000337,26078.6922836873,40127.54240168693,-18.034328759546575,-1632.6149326843115,1.5603125274009237,-0.03460712258056744,4.7013431453052945,-3.141030617904371,971282.4821124797,524447.8380987683
449.90000000003374,26076.896655335422,39964.774947239384,-17.95628351875146,-1627.674544475442,1.5568261428639956,-0.034863845369281124,4.701357564310598,-3.1445314214466027,969683.5378986126,522848.8938849011
450.00000000003376,26075.1001861605,39802.50115344879,-17.96469174922138,-1622.7379379058796,1.5534843191707217,-0.033418236932739355,4.701318826987677,-3.147834507816955,968084.5938068157,521249.9497931042
450.1000000000338,26073.28650650141,39640.718433717106,-18.136796590916575,-1617.827197316888,1.550576767101498,-0.029075520692236973,4.701178860488302,-3.1506020933868033,966485.6498370891,519651.00582337764
450.2000000000338,26071.442716919846,39479.42508975622,-18.437895815633155,-1612.9334396088088,1.5483325687105753,-0.022441983909227414,4.700958197001573,-3.152625628290998,964886.7058673626,518052.0618536511
450.30000000003383,26069.558859161734,39318.61989249002,-18.83857758113603,-1608.051972661991,1.546926957176631,-0.01405611533944202,4.700674361616283,-3.1537474044396516,963287.7621417766,516453.11812806514
450.40000000003386,26067.62881127913,39158.30243562206,-19.3004788260484,-1603.1745686795857,1.54646635373567,-0.004606034409611069,4.700350649161651,-3.153884295425981,961688.8184161907,514854.1744024792
450.5000000000339,26065.650958161554,38998.4733287292,-19.778531175771718,-1598.2910689286841,1.5469776595444673,0.0051130580879736875,4.700014812716766,-3.153037153172299,960089.8749347454,513255.2309210339
450.6000000000339,26063.628475236248,38839.13425632214,-20.224829253070958,-1593.3907240705346,1.5484043145747401,0.01426655030272735,4.699696711686785,-3.1512923971120452,958490.9316974407,511656.2876837292
450.7000000000339,26061.56917090545,38680.287896648944,-20.593043307951113,-1588.463596731943,1.5506098876900718,0.022055731153316434,4.699425579910512,-3.1488156922204404,956891.9882159954,510057.3442022839
450.80000000003395,26059.484909309314,38521.93766822323,-20.842615961377653,-1583.502284257125,1.553388746931257,0.027788592411852192,4.6992273874714785,-3.145838640540221,955293.0449786907,508458.4009649792
450.90000000003397,26057.391426489117,38364.08737706102,-20.934828201964553,-1578.502911622149,1.5564711291055657,0.03082382174308763,4.699127300124909,-3.1426561710193432,953694.101741386,506859.4577276745
451.000000000034,26055.30255860194,38206.74146168826,-20.888678871765475,-1573.4591537276112,1.559615211945359,0.031440828397932316,4.699114119201694,-3.1394989072563346,952095.1587482219,505260.51473451045
451.100000000034,26053.228399534775,38049.900041770175,-20.741590671635322,-1568.4141991808272,1.5626364781092736,0.03021266163914603,4.699165189341233,-3.1365287112319598,950496.2159991985,503661.571985487
451.20000000003404,26051.1854264601,37893.559761154036,-20.42973074675151,-1563.402806161374,1.5652542928317936,0.02617814722519883,4.699322246762268,-3.134067953930474,948897.273250175,502062.6292364636
451.30000000003406,26049.188203457674,37737.71851065509,-19.972230024236463,-1558.4125049894317,1.567223083993374,0.019687911615804132,4.699573928765481,-3.132350844772107,947298.3306232219,500463.68660951045
451.4000000000341,26047.24725896247,37582.37484333056,-19.409444952041934,-1553.4366732453075,1.5683664042278003,0.011433202344262436,4.699895110915433,-3.1315287066876327,945699.38848455,498864.7444708386
451.5000000000341,26045.368254214944,37427.5284094816,-18.79004747528081,-1548.4643384895683,1.5685904452626869,0.002240410348866965,4.700254942282727,-3.13166449702004,944100.4465900188,497265.8025763073
451.60000000003413,26043.551312711716,37273.18018050837,-18.16941503229736,-1543.4822897323131,1.5678942165674705,-0.0069622869521628,4.7006178211303595,-3.132723604562889,942501.5048175579,495666.8608038464
451.70000000003415,26041.790908149673,37119.332454811265,-17.604045620436814,-1538.477256971051,1.5663704089350805,-0.015238076323899924,4.700946966994273,-3.1345765580591927,940902.5629230266,494067.91890931514
451.8000000000342,26040.076338148272,36965.988630441214,-17.145700014005424,-1533.438243700532,1.5641966656847213,-0.02173743250359184,4.701208233052839,-3.137011567368117,939303.621272636,492468.9772589245
451.9000000000342,26038.392213095372,36813.15278500533,-16.84125052900738,-1528.3584543588393,1.5616259866356015,-0.02570679049119684,4.701370250520281,-3.1397442638846793,937704.6797443157,490870.0357306042
452.0000000000342,26036.72201889638,36660.8303500818,-16.701941989918925,-1523.2243492352918,1.5589306668021452,-0.0269531983345636,4.701424559615894,-3.142493892813749,936105.738460136,489271.0944464245
452.10000000003424,26035.05491861346,36509.0231128167,-16.671002829222108,-1518.0723726510346,1.5562975154515732,-0.02633151350571906,4.701407730071913,-3.1451102146203396,934506.7971759563,487672.1531622448
452.20000000003427,26033.378108150308,36357.728984443354,-16.768104631511275,-1512.9412837334767,1.5539401330380764,-0.023573824134968727,4.701306317567767,-3.147366184529691,932907.8558917766,486073.21187806514
452.3000000000343,26031.67355408236,36206.94550484588,-17.045540679463677,-1507.834795974747,1.5521455015421088,-0.017946314959676878,4.701084814524666,-3.1489393129825576,931308.9146075969,484474.27059388545
452.4000000000343,26029.929527041833,36056.671498847136,-17.44027040527526,-1502.7400599874084,1.5511007982011609,-0.010447033409480395,4.700783854576936,-3.1496830563757747,929709.9733234172,482875.32930970576
452.50000000003433,26028.139952360576,35906.90677999362,-17.895746812557498,-1497.6471885351755,1.5509022937876968,-0.001985044134640939,4.700440308308723,-3.149538014521026,928111.0320392376,481276.3880255261
452.60000000003436,26026.305057332378,35757.6524066722,-18.348950281994817,-1492.543733214222,1.5515460025197445,0.00643708732047665,4.700095855861088,-3.1485498533413434,926512.0907550579,479677.4467413464
452.7000000000344,26024.431384758427,35608.91065241121,-18.736725739495387,-1487.4175426099303,1.5529284488633794,0.013824463436348609,4.699792830177645,-3.146864381314266,924913.1494708782,478078.5054571667
452.8000000000344,26022.53123504155,35460.68469106555,-19.001497168740705,-1482.259613456537,1.5548564818711548,0.01928033007775221,4.699570405125905,-3.1447139232547503,923314.2081866985,476479.564172987
452.9000000000344,26020.62358217578,35312.97942232685,-19.07652865771307,-1477.052687387064,1.5570365880814283,0.0218010621027355,4.699474432213406,-3.142437844131978,921715.2669025188,474880.6228888073
453.00000000003445,26018.71988393738,35165.79841063972,-19.036982383992097,-1471.8101168713072,1.5592832250759587,0.022466369945304474,4.699455300522502,-3.140172075446544,920116.3256183391,473281.68160462764
453.10000000003447,26016.831282269708,35019.142150910564,-18.886016676749836,-1466.562597291543,1.5614152773345553,0.021320522585966045,4.699511948868984,-3.138096671534428,918517.3843341594,471682.74032044795
453.2000000000345,26014.97069093982,34873.00800322302,-18.60591329887296,-1461.3414768754826,1.5632278742280592,0.01812596893503969,4.699657590551755,-3.136429716323696,916918.4430499797,470083.79903626826
453.3000000000345,26013.154730704893,34727.393398791835,-18.159602349263057,-1456.1460443118315,1.564467293424969,0.012394191969098828,4.699918623391054,-3.1354513299660844,915319.5017658,468484.8577520886
453.40000000003454,26011.39246758106,34582.29759537961,-17.62263123835366,-1450.9580341222677,1.5649948313904896,0.005275379655206241,4.700244063457241,-3.1352492320667515,913720.5604816204,466885.9164679089
453.50000000003456,26009.686354019028,34437.72112400053,-17.06113562032896,-1445.764713790874,1.5647733210965293,-0.0022151029396025044,4.70058875898189,-3.135815437885361,912121.6189533,465286.9749395886
453.6000000000346,26008.0320917673,34293.66586628119,-16.54262251725501,-1440.552577193363,1.563868395654077,-0.009049254424521518,4.700905959444934,-3.137037563790857,910522.6776691204,463688.0336554089
453.7000000000346,26006.418826945286,34150.13486087683,-16.132648220165024,-1435.3100540435742,1.56244417695959,-0.014242186944870682,4.701149618645763,-3.138705441686173,908923.7363849407,462089.0923712292
453.80000000003463,26004.829043842106,34007.133438952806,-15.897831031794153,-1430.0142192402905,1.5607626003894934,-0.016815765700966594,4.701272184543667,-3.1405095841541737,907324.795100761,460490.1510870495
453.90000000003465,26003.252579995842,33864.66534260713,-15.764638462636766,-1424.6809634567542,1.558982715166969,-0.01779885222524436,4.701324050415959,-3.14234133524899,905725.8540607219,458891.21004701045
454.0000000000347,26001.678734192294,33722.73187285596,-15.738458035467751,-1419.334697511634,1.5572706904629177,-0.01712024704051375,4.7013008184048015,-3.1440301279418836,904126.9132648235,457292.269251112
454.1000000000347,26000.097105610024,33581.33217204903,-15.816285822686933,-1413.9970080693276,1.5557864304404254,-0.014842600224922377,4.701203931081388,-3.145417500640962,902527.972468925,455693.3284552136
454.2000000000347,25998.493776052263,33440.46362705954,-16.03329557761658,-1408.6854498949047,1.5547353065456,-0.010511238948254759,4.70100772895403,-3.14627242240843,900929.0316730266,454094.38765931514
454.30000000003474,25996.858267847707,33300.12550241429,-16.355082045572328,-1403.3812464525004,1.5542701278461488,-0.004651786994510807,4.700735453080867,-3.1464653252347183,899330.0906329876,452495.4466192761
454.40000000003477,25995.18790844545,33160.318417126466,-16.70359402259843,-1398.070852878245,1.5544299940428723,0.0015986619672338567,4.700441946891813,-3.1460119528489403,897731.1495929485,450896.505579237
454.5000000000348,25993.487252614326,33021.04410739873,-17.006558311220388,-1392.7430972773507,1.555149038787556,0.007190447446836308,4.700178750681558,-3.145029711894002,896132.2083087688,449297.5642950573
454.6000000000348,25991.76869868081,32882.306105571726,-17.185539335168457,-1387.3800182700795,1.5562497108977362,0.011006721101802683,4.700002568433343,-3.143752857535606,894533.2670245891,447698.62301087764
454.70000000003483,25990.043323194892,32744.1085070306,-17.253754859200388,-1381.9759854112592,1.5575704865122986,0.01320775614562401,4.699904784805393,-3.1423342982930946,892934.32598455,446099.6819708386
454.80000000003486,25988.320899459985,32606.454027599983,-17.224237349070407,-1376.5447943061583,1.5589664292303351,0.013959427180366258,4.699876973081378,-3.1409105438510427,891335.3855548626,444500.7415411511
454.9000000000349,25986.611122391114,32469.343792061754,-17.097770688705356,-1371.1023553822877,1.560293660240285,0.013272310099498657,4.699919536034451,-3.1396258757941657,889736.4461017376,442901.8020880261
455.0000000000349,25984.923463178093,32332.77708328132,-16.876592130196656,-1365.6670878043435,1.5614126191126483,0.011189588723631922,4.700031844988813,-3.138619225876165,888137.5075031047,441302.86348939326
455.1000000000349,25983.265592872027,32196.752518902424,-16.57870306066992,-1360.245643788935,1.5622107401625582,0.007981210499098501,4.700201562399414,-3.1379908222368558,886538.5696368938,439703.9256231823
455.20000000003495,25981.64676311122,32061.26875734187,-16.188297608045808,-1354.8376156055474,1.562557784606533,0.0034704444397481654,4.7004410339277705,-3.1378832493212374,884939.6327472454,438104.9887335339
455.30000000003497,25980.069077649034,31926.326436008407,-15.77685462187928,-1349.4232133346281,1.562424274534185,-0.0013351007234817655,4.700697958868222,-3.1382736843340373,883340.6968341594,436506.05282044795
455.400000000035,25978.526726036544,31791.928119125492,-15.423516124910963,-1343.9831688291436,1.561890892412263,-0.005333821219220019,4.700913509966518,-3.1390226175542546,881741.7622638469,434907.11825013545
455.500000000035,25977.011861613624,31658.077200770644,-15.14864422919685,-1338.5091835484864,1.5610683571060724,-0.00822535306190627,4.701071913842329,-3.1400035567362563,880142.8287921672,433308.18477845576
455.60000000003504,25975.51705651191,31524.776903485676,-14.948051017138276,-1333.0029728496738,1.5600635499752622,-0.010048071308101298,4.70117563367958,-3.141112083704318,878543.896663261,431709.2526495495
455.70000000003506,25974.033061754726,31392.029374830003,-14.839947571859158,-1327.4752865567336,1.5590081190034482,-0.010554309718140874,4.701210369696347,-3.1422022506928986,876944.9658771282,430110.3218634167
455.8000000000351,25972.551574942536,31259.836342862905,-14.814868121898607,-1321.9303196709886,1.5580207349557427,-0.00987384047705472,4.701182453296974,-3.143161718341232,875346.0365558391,428511.39254212764
455.9000000000351,25971.0641704371,31128.19753525661,-14.874045054351647,-1316.388076062924,1.557219960669975,-0.008007742857676315,4.701090327364804,-3.1438703666948293,873747.1088214641,426912.46480775264
456.00000000003513,25969.56459107624,30997.112570903082,-14.995793608608103,-1310.8496435352938,1.5566935650509348,-0.005263956190403244,4.7009497283103645,-3.1442561632594295,872148.1829181438,425313.5389044323
456.10000000003515,25968.04938820765,30866.58150952414,-15.152028685879689,-1305.31061378942,1.5564898828991358,-0.002036821517988934,4.700781514678342,-3.144291631779206,870549.2590900188,423714.6150763073
456.2000000000352,25966.517979073957,30736.605327572543,-15.314091336935155,-1299.7618195159807,1.5566171883848663,0.0012730548573057845,4.700607296596723,-3.143990108211857,868950.3373370891,422115.69332337764
456.3000000000352,25964.97270987735,30607.18596193274,-15.452691966068043,-1294.193656398033,1.5570432509082754,0.004260625234092463,4.700449532512922,-3.143406281604646,867351.417781425,420516.7737677136
456.4000000000352,25963.41864691958,30478.325866991912,-15.54062957770363,-1288.6009494082714,1.5576986320879955,0.006553811797201154,4.700329485773647,-3.1426308536856515,865752.5005450969,418917.85653138545
456.50000000003524,25961.86297502122,30350.02739344332,-15.556718983590127,-1282.9847354859003,1.558485256707836,0.007866246198405143,4.700264162209954,-3.1417789055021177,864153.585750175,417318.9417364636
456.60000000003527,25960.31438784701,30222.292072953704,-15.485871742091227,-1277.3532048961827,1.5592852175668943,0.007999608590583842,4.7002661681032,-3.1409809505363055,862554.6737628704,415720.0297491589
456.7000000000353,25958.779397990766,30095.121326017696,-15.349898562453447,-1271.7074693600741,1.560009087070757,0.007238695038626732,4.700319260308762,-3.1403101732380048,860955.7648273235,414121.120813612
456.8000000000353,25957.26472107314,29968.51502818026,-15.146769176256848,-1266.0629783743718,1.560565922353875,0.0055683528311792525,4.700425873614501,-3.139859951260626,859356.8593097454,412522.2152960339
456.90000000003533,25955.77509968776,29842.473308183275,-14.896213853830417,-1260.4171999698635,1.5608918141225407,0.003258917686657604,4.700571051874774,-3.139679237752233,857757.9574542766,410923.31344056514
457.00000000003536,25954.31242075283,29716.996826586248,-14.626789349268538,-1254.7648159702514,1.5609612602197478,0.0006944609720704285,4.700732511623446,-3.1397712514036984,856159.0593829876,409324.4153692761
457.1000000000354,25952.876100255464,29592.086946033527,-14.363204973667166,-1249.098805527214,1.560782142036103,-0.0017911818364480772,4.700890633009324,-3.1401084909732213,854560.1655841594,407725.52157044795
457.2000000000354,25951.462780704078,29467.74570623625,-14.133195513873295,-1243.41239797279,1.5603990700722261,-0.003830719638769726,4.701023011272975,-3.1406239412007486,852961.2765460735,406126.632532362
457.3000000000354,25950.067082619793,29343.975054756473,-13.956980842835911,-1237.7065147977553,1.559883166467239,-0.00515903604987148,4.701112971787195,-3.1412298053199557,851362.3922687297,404527.74825501826
457.40000000003545,25948.682232220624,29220.776294996715,-13.84850399170134,-1231.9875975975726,1.5593233279856806,-0.005598384815582931,4.701148671808381,-3.141825343822701,849763.5133624797,402928.86934876826
457.50000000003547,25947.30320251542,29098.150927935854,-13.790297052031317,-1226.2536706086166,1.5587866048789134,-0.005367231067671486,4.701143578169038,-3.1423569732901244,848164.6401935344,401329.99617982295
457.6000000000355,25945.923623417995,28976.10005393044,-13.795790974247154,-1220.5087400541508,1.5583558286058516,-0.004307762730617551,4.701086149829318,-3.1427303212234663,846565.773616386,399731.1296026745
457.7000000000355,25944.539115496256,28854.624677873504,-13.845079217392462,-1214.7537605693767,1.5580879290254763,-0.002678995803753707,4.700992037058111,-3.142904108032634,844966.913875175,398132.2698614636
457.80000000003554,25943.147657449448,28733.725493193448,-13.914580468071525,-1208.9918468005656,1.5580092404227666,-0.0007868860270967325,4.700880245924448,-3.1428710055016813,843368.0615802532,396533.4175665417
457.90000000003556,25941.74949578163,28613.403720064336,-13.981616678173104,-1203.217731291105,1.5581168621684889,0.0010762174572223624,4.700769315000203,-3.1426524528317143,841769.2174640422,394934.57345033076
458.0000000000356,25940.347035321414,28493.66122160953,-14.024604602160164,-1197.4249845480417,1.5583803598481292,0.0026349767964031255,4.700677212594131,-3.1422968527460022,840170.3822589641,393335.73824525264
458.1000000000356,25938.944485576892,28374.498945630738,-14.025497445211677,-1191.6227597879251,1.558746354290584,0.003659944424546928,4.70061944198795,-3.141873087697366,838571.5566974407,391736.9126837292
458.20000000003563,25937.547317491946,28255.91825326695,-13.971680849452317,-1185.8069236378617,1.5591459490959525,0.003995948053684582,4.700607100819991,-3.1414611517240387,836972.7416339641,390138.09762025264
458.30000000003565,25936.1586840884,28137.920690409326,-13.8863340354648,-1179.9756285762319,1.5595382755347713,0.003923264388187866,4.700621200866918,-3.1410829253321464,835373.9380450969,388539.29403138545
458.4000000000357,25934.78390117773,28020.506878833497,-13.747829106725503,-1174.1381157582775,1.5598569229484482,0.0031864741367683812,4.70068064666392,-3.1408237237154717,833775.1469074016,386940.50289369014
458.5000000000357,25933.42641205847,27903.677478563877,-13.574891192583914,-1168.294002696204,1.5600588324260811,0.002019094776329558,4.7007700896843225,-3.1407112572582414,832176.3694415813,385341.7254278698
458.6000000000357,25932.087743866752,27787.434033095906,-13.386681917195723,-1162.4344546797213,1.5601249916910238,0.0006615926494270095,4.700873414814589,-3.140748423123566,830577.6068683391,383742.96285462764
458.70000000003574,25930.767525028892,27671.777728999597,-13.2021883786059,-1156.5630409630874,1.560059939905259,-0.0006505178576472195,4.700974457761044,-3.1409145178557845,828978.8605304485,382144.216516737
458.80000000003577,25929.463621260653,27556.710291838288,-13.03903768240884,-1150.6743716131111,1.5598899721961865,-0.001699677090724359,4.701057816721855,-3.1411678445256683,827380.1318927532,380545.4878790417
458.9000000000358,25928.172537244438,27442.23233650315,-12.910840162158495,-1144.7795533513606,1.5596577714964603,-0.002322006997261471,4.70111144422148,-3.14145367272502,825781.4225421672,378946.77852845576
459.0000000000358,25926.889980324602,27328.346056287482,-12.825569198375655,-1138.8628021566844,1.5594156541142712,-0.002421173821891706,4.701127723095924,-3.141712068981653,824182.7343097454,377348.0902960339
459.10000000003583,25925.614731079215,27215.05273731445,-12.752492453874412,-1132.9331897303248,1.5591798697142845,-0.0023578439998678956,4.701133282322331,-3.141953412608047,822584.0693927532,375749.4253790417
