time[s],x[m],y[m],vx[m/s],vy[m/s],theta[rad],theta_dot[rad/s],gamma[rad],alpha[rad],mass[kg],mass_propellant[kg]
449.7000000000337,26080.495740061473,40290.80292220889,-18.22639325489858,-1637.5247375645647,1.5637715591333459,-0.03220680581235944,4.701258986301735,-3.137487427168389,972884.0501056438,526049.4060919323
449.8000000000337,26078.692804251434,40127.53950480643,-18.029358100408064,-1632.634174024579,1.5603104938640358,-0.03461065269310064,4.701346319667524,-3.141035825803488,971287.4017902141,524452.7577765026
449.90000000003374,26076.898774191213,39964.769253196275,-17.9403006022208,-1627.702516101546,1.556837649423887,-0.03472844440148907,4.701367571983907,-3.14452992256002,969690.5497394329,522855.9057257214
450.00000000003376,26075.105770829145,39802.491885751035,-17.93003362068541,-1622.7736744524204,1.5535370344580188,-0.033006149658681545,4.701340425481092,-3.147803391023073,968093.3794513469,521258.73543763545
450.1000000000338,26073.29837495878,39640.70491351212,-18.07395870363203,-1617.8697223891581,1.550711199276693,-0.02825835181325803,4.701217990146928,-3.1505067908702347,966495.9578204876,519661.3138067761
450.2000000000338,26071.46479581618,39479.40673223188,-18.335791426005233,-1612.9818128023635,1.548599161673118,-0.021120376035750822,4.701021833192638,-3.1524226715195205,964898.3873859172,518063.74337220576
450.30000000003383,26069.596221906853,39318.596168697375,-18.68573909327483,-1608.1056353450797,1.5473788754153799,-0.012202862577381698,4.700769782130024,-3.153390906714644,963300.9014240032,516466.2574102917
450.40000000003386,26067.686666641705,39158.27224171021,-19.09555265148834,-1603.2392698715953,1.5471326742910019,-0.0024620112437806,4.700478936696346,-3.1533462624053437,961705.3923908,514870.7483770886
450.5000000000339,26065.733803718664,38998.42752848485,-19.52862923039622,-1598.4471322536488,1.5478416945853553,0.007090202943532891,4.700172337556112,-3.1523306429707567,960131.8737140422,513297.22970033076
450.6000000000339,26063.736670053386,38839.07346086285,-19.97133665279269,-1593.540676220028,1.549337765744072,0.014960711587167117,4.69985695567428,-3.1505191899302076,958533.0711017376,511698.4270880261
450.7000000000339,26061.69823235045,38680.212932326074,-20.38437702937083,-1588.6052853677488,1.5514003503843383,0.020625846402664107,4.699558066020929,-3.1481577156365903,956934.1366534954,510099.4926397839
450.80000000003395,26059.625389209603,38521.84924081799,-20.7284314084738,-1583.636915080889,1.5537582857983492,0.023579354140108914,4.699300596573901,-3.1455423107755522,955335.1948810344,508500.55086732295
450.90000000003397,26057.528429316917,38363.985863870905,-20.96959892684546,-1578.6337694708461,1.5561002602084002,0.02341974410050918,4.699106377343437,-3.1430061171350365,953736.2522540813,506901.6082403698
451.000000000034,26055.414659125872,38206.626578464384,-21.13770191046045,-1573.5928540652321,1.558175314138802,0.02075053930401662,4.698957023930953,-3.1407817097921513,952137.3101154094,505302.66610169795
451.100000000034,26053.287962250764,38049.7723905474,-21.26696875109111,-1568.5418791698653,1.5597995908601847,0.01624276721382841,4.698831378894684,-3.139031788034499,950538.3702960735,503703.726282362
451.20000000003404,26051.15123928382,37893.42284449046,-21.367229669458354,-1563.4954605694038,1.560819393352074,0.010198024918893024,4.698723510853826,-3.137904117501752,948939.4379230266,502104.79390931514
451.30000000003406,26049.00821313991,37737.57679095981,-21.430261439102676,-1558.4605353065374,1.561083931001177,0.00264537649103138,4.698638930015249,-3.1375549990140716,947340.5722003704,500505.9281866589
451.4000000000341,26046.85963939048,37582.23282781394,-21.48573749428893,-1553.4396314586954,1.5605067858411559,-0.00577145160021204,4.698558788884049,-3.138052003042893,945745.5908771282,498910.9468634167
451.5000000000341,26044.703469278735,37427.38098486896,-21.561701117471713,-1548.5184294497913,1.5591495302343563,-0.013572556067996129,4.698465795869892,-3.139316265635536,944181.9196124797,497347.27559876826
451.60000000003413,26042.535462774395,37273.03543688887,-21.680065043396123,-1543.45547980093,1.5571437889283672,-0.02005741305989113,4.698343457432447,-3.14119966850408,942588.8931232219,495754.24910951045
451.70000000003415,26040.351156883116,37119.19954490863,-21.843058912775945,-1538.3589198023774,1.5546635123671395,-0.0248027656122769,4.698190999091444,-3.143527486724304,940992.8301349407,494158.1861212292
451.8000000000342,26038.144599474024,36965.874100669025,-22.065574090911266,-1533.2544423960571,1.5519059105505286,-0.027576018166108957,4.697998641551719,-3.1460927310011906,939395.9876056438,492561.3435919323
451.9000000000342,26035.902557285805,36813.056455867525,-22.42042188220319,-1528.1764480149905,1.5491766472117037,-0.02729263338825015,4.697718676138461,-3.148542028926757,937798.8390460735,490964.195032362
452.0000000000342,26033.61054493368,36660.74486304218,-22.920123521270494,-1523.1159282534923,1.546793888663177,-0.023827585485267293,4.6973419355333315,-3.1505480468701546,936201.3414874797,489366.69747376826
452.10000000003424,26031.256955850076,36508.93769276107,-23.535890836015852,-1518.0717028110398,1.5450228765341105,-0.01771012129066465,4.696886415317604,-3.151863538783494,934603.6847491985,487769.040735487
452.20000000003427,26028.83388392224,36357.63386764284,-24.23071927834982,-1513.0382511823325,1.5440508585476718,-0.009720179864387134,4.696375738081047,-3.152324879533375,933006.2742267376,486171.6302130261
452.3000000000343,26026.337323470256,36206.83190279321,-24.9656045198662,-1508.0196484963262,1.5439453715764615,-0.0010548697121033415,4.695835267639769,-3.1518898960633073,931413.0242267376,484578.3802130261
452.4000000000343,26023.767446036887,36056.51968156633,-25.69877433370165,-1503.1222122687793,1.5446399520728586,0.006945804963972473,4.695293716537883,-3.150653764465024,929854.7903400188,483020.1463263073
452.50000000003433,26021.12855599841,35906.715364998534,-26.388900384779618,-1498.043165677946,1.5459396774650525,0.012997253921937077,4.6947752213628675,-3.148835543897815,928256.2597003704,481421.6156866589
452.60000000003436,26018.42920199944,35757.42243467634,-26.993539989713128,-1492.9293032219362,1.547604090918631,0.016644134535786066,4.694310027192293,-3.1467059362736616,926657.3623615032,479822.7183477917
452.7000000000344,26015.681758454626,35608.64451421994,-27.474435448141833,-1487.7792045639928,1.5493434127208614,0.017393218022303803,4.693924336648045,-3.144580923927184,925058.4425616985,478223.798547987
452.8000000000344,26012.902006296812,35460.386250649404,-27.797521578136454,-1482.5826357053381,1.550828131412254,0.014847186913926839,4.69364178593821,-3.142813654525956,923459.5219074016,476624.87789369014
452.9000000000344,26010.095969029135,35312.6506035044,-28.060372676777853,-1477.3564714500146,1.5518821573315216,0.010540259192674765,4.693397626833801,-3.1415154695022793,921860.6180988079,475025.9740850964
453.00000000003445,26007.26710373738,35165.43874666736,-28.288652917545985,-1472.118568370425,1.5523780794069681,0.004959220754465041,4.693175058159312,-3.140796978752344,920261.8058429485,473427.161829237
453.10000000003447,26004.418018765355,35018.749896651505,-28.490849720241272,-1466.8885001585088,1.5522144754592542,-0.001636039477139646,4.692968780480015,-3.140754305020761,918666.3505206829,471831.7065069714
453.2000000000345,26001.54989262297,34872.55574895294,-28.68126142382791,-1461.9414769856635,1.5513963018660077,-0.008181735932465366,4.692772885612439,-3.1413765837464314,917145.6641193157,470311.0201056042
453.3000000000345,25998.65955399621,34726.882205669564,-28.90338626758223,-1456.7354328337663,1.5499676421358506,-0.014286597301570815,4.692550378480556,-3.142582736344705,915562.2813068157,468727.6372931042
453.40000000003454,25995.743432528616,34581.73514112439,-29.1612146759644,-1451.4706454517764,1.5480623961228874,-0.019052460129630713,4.692300877212604,-3.144238481089717,913966.4287677532,467131.7847540417
453.50000000003456,25992.79449398565,34437.114422281826,-29.489385429649943,-1446.2071884256186,1.5458624331023922,-0.021999630204951954,4.692000961580355,-3.146138528477963,912368.838069511,465534.1940557995
453.6000000000346,25989.795420240847,34293.01720516364,-29.990737448028053,-1440.9721711818358,1.5436836362144994,-0.021787968878928404,4.691579134946229,-3.14789549873173,910770.8607745891,463936.21676087764
453.7000000000346,25986.730768701756,34149.44200130574,-30.646515390921582,-1435.7520385789794,1.5418061398441356,-0.01877496370363785,4.691046950949723,-3.149240811105587,909172.761897636,462338.1178839245
453.80000000003463,25983.58898762777,34006.3876008004,-31.417810739875943,-1430.5440050533987,1.5404480625449448,-0.013580772991906936,4.690430368290389,-3.1499823057454446,907574.73223455,460740.0882208386
453.90000000003465,25980.363960399303,33863.853376722975,-32.25027228463769,-1425.3422407742878,1.5397479380164323,-0.007001245285126009,4.689766504510756,-3.150018566494324,905977.4153400188,459142.7713263073
454.0000000000347,25977.05400909757,33721.83665592547,-33.09951301734259,-1420.167207975056,1.5397121046960205,-0.00035833320411719164,4.6890864273446695,-3.149374322648649,904388.9208331829,457554.2768194714
454.1000000000347,25973.662863935813,33580.31388079836,-33.91145161758529,-1415.2277512710775,1.540240848075353,0.005287433793325893,4.6884317314433,-3.1481908833679473,902864.8926349407,456030.2486212292
454.2000000000347,25970.19833773695,33439.31613434768,-34.645261988618515,-1409.9774645068217,1.5411150811712486,0.008742330958956058,4.687822423169017,-3.146707341997768,901269.8901935344,454435.24617982295
454.30000000003474,25966.672092347573,33298.8478326395,-35.2624538937722,-1404.6830170818707,1.5420937342823764,0.009786531111277006,4.687290756109904,-3.145197021827528,899671.4285236126,452836.7845099011
454.40000000003477,25963.09928441471,33158.912734315985,-35.728079328606626,-1399.3509832351235,1.5428956376770315,0.008019033946552331,4.686862633279967,-3.143966995602935,898072.8342853313,451238.1902716198
454.5000000000348,25959.489719659545,33019.51462462143,-36.09564755167435,-1393.9810969456066,1.5433224928222127,0.004268551451811971,4.686500836312391,-3.143178343490178,896474.69317205,449640.0491583386
454.6000000000348,25955.847254757526,32880.650807256454,-36.42464902017667,-1388.6381736497742,1.5432737337824534,-0.00048759039759344123,4.686164511471068,-3.1428907776886144,894888.648616386,448054.0046026745
454.70000000003483,25952.1745688211,32742.28314501236,-36.726859364233924,-1383.6766224409457,1.5427359081568788,-0.0053782562557449344,4.6858522611998135,-3.1431163530429345,893401.3186603313,446566.6746466198
454.80000000003486,25948.468634206623,32604.446629769667,-37.059346144772,-1378.3651524269276,1.5416958435337489,-0.010400646231299606,4.685509005861478,-3.1438131623277292,891828.7826495891,444994.13863587764
454.9000000000349,25944.725509796008,32467.150458124863,-37.43124410616534,-1372.9617164480512,1.5402439453800267,-0.014518981537220598,4.685132594541509,-3.144888649161482,890233.3914142376,443398.7474005261
455.0000000000349,25940.93631373535,32330.39403278782,-37.89196060658654,-1367.5642533704295,1.5385427871561503,-0.017011582238762982,4.68468844034398,-3.14614565318783,888635.6845050579,441801.0404913464
455.1000000000349,25937.083198534816,32194.175294357323,-38.53115200532901,-1362.1873843049646,1.5368644763994574,-0.016783107566928475,4.6841102861468285,-3.1472458097473712,887037.5283771282,440202.8843634167
455.20000000003495,25933.152586488166,32058.493431643303,-39.30612046650728,-1356.8186271401914,1.5354154034245069,-0.014490729749506624,4.6834277546940974,-3.148012351269591,885439.3268390422,438604.68282533076
455.30000000003497,25929.135189326276,31923.348007900662,-40.173971618883726,-1351.4542374263908,1.534339761916128,-0.010756415083786885,4.682671256058923,-3.1483314941427953,883841.3418536907,437006.6978399792
455.400000000035,25925.02727037372,31788.73893373935,-41.079189525540414,-1346.090741613122,1.5337097600009053,-0.006300019152227949,4.681881048885517,-3.1481712888846114,882244.670100761,435410.0260870495
455.500000000035,25920.82974211084,31654.665601074048,-41.97528262882452,-1340.733326653039,1.5334976089167918,-0.002121510841135604,4.681091498986056,-3.1475938900692646,880652.8938556438,433818.2498419323
455.60000000003504,25916.548271199546,31521.11014651796,-42.81470911292896,-1335.5545455608815,1.5336057738410114,0.0010816492421955675,4.6803423286605845,-3.146736554819573,879110.2157550579,432275.5717413464
455.70000000003506,25912.192405306858,31388.052491911974,-43.5586589269001,-1330.5765460598464,1.5338907984237713,0.002850245827599954,4.679663987154747,-3.145773188730976,877622.6117511516,430787.96773744014
455.8000000000351,25907.77302509666,31255.518740240957,-44.193802101997186,-1325.3375167101642,1.5341345352366054,0.0024373681283416113,4.679056012279355,-3.1449214770427503,876077.3637042766,429242.71969056514
455.9000000000351,25903.303068406884,31123.505625509486,-44.69956689774588,-1320.1311473147305,1.5341380292434084,3.49400680310359e-05,4.678541967451195,-3.1444039382077866,874548.5628009563,427713.9187872448
456.00000000003513,25898.789086114,30991.99708545055,-45.13982292882702,-1315.0854005893677,1.533811439110027,-0.0032659013338124363,4.678077818682315,-3.144266379572288,873064.9452472454,426230.3012335339
456.10000000003515,25894.230097194653,30861.029583981144,-45.589889193478115,-1309.6750146940494,1.5330945415657347,-0.007168975442923877,4.677592952613291,-3.1444984110475565,871495.777156425,424661.1331427136
456.2000000000352,25889.623573345976,30730.61373169049,-46.06523848678217,-1304.158522906544,1.5320098110342686,-0.010847305314661257,4.67708184973673,-3.1450720387024615,869901.5062824016,423066.86226869014
456.3000000000352,25884.96006344226,30600.74998347497,-46.6350990371531,-1298.6374821552151,1.5306925952205146,-0.013172158137539055,4.676493614253129,-3.145801019032614,868304.3389240032,421469.6949102917
456.4000000000352,25880.22609239186,30471.437468746575,-47.339710504025405,-1293.1251472839263,1.5293243603684725,-0.013682348520421045,4.67579655981079,-3.146472199442317,866706.2910724407,419871.6470587292
456.50000000003524,25875.410659744826,30342.676070278154,-48.15432647031431,-1287.613984684218,1.5280510469009845,-0.012733134674880364,4.6750082932999035,-3.146957246398919,865108.0941730266,418273.45015931514
456.60000000003527,25870.505981487993,30214.465955566444,-49.04678256832001,-1282.1011471171107,1.526974325522053,-0.010767213789316289,4.674152622898165,-3.1471782973761124,863510.0029865032,416675.3589727917
456.7000000000353,25865.508225557016,30086.807616560993,-49.97755930978842,-1276.5833900545204,1.5261434203945332,-0.008309051275196405,4.673259496216877,-3.147116075822344,861912.4225421672,415077.77852845576
456.8000000000353,25860.4178914923,29959.701516181012,-50.903340647166424,-1271.0610037998063,1.5255539217000604,-0.00589498694472799,4.672362456774035,-3.1468085350739745,860316.7744708782,413482.1304571667
456.90000000003533,25855.238732929316,29833.148018768246,-51.791585629822556,-1265.5349741276564,1.5251455404660605,-0.0040838123399994835,4.671487146996904,-3.146341606530844,858724.347835136,411889.7038214245
457.00000000003536,25849.977189830144,29707.146444352165,-52.615430991703235,-1260.015744160795,1.5248236100374128,-0.0032193042864767482,4.670655469379636,-3.1458318593422225,857138.2347980266,410303.59078431514
457.1000000000354,25844.640959520424,29581.69603901605,-53.3623030972047,-1254.5040533611768,1.5244790175356202,-0.003445925017926885,4.669878034345313,-3.1453990168096926,855558.6406818157,408723.9966681042
457.2000000000354,25839.23737333537,29456.798498572745,-54.03586185053729,-1248.9754044330475,1.5240071935815942,-0.004718239540260787,4.669151791779116,-3.145144598197522,853979.8390460735,407145.195032362
457.3000000000354,25833.7710840287,29332.457937909545,-54.66289306671805,-1243.4056066319927,1.5233387279134019,-0.006684656681923219,4.6684550313246085,-3.1451163034112066,852395.7487140422,405561.10470033076
457.40000000003545,25828.24239178206,29208.678028080507,-55.28692246639619,-1237.799098290381,1.5224693581927244,-0.008693697206773357,4.667753142024843,-3.1452837838321184,850805.6617999797,403971.01778626826
457.50000000003547,25822.647610688357,29085.460972069886,-55.94781093701579,-1232.1705601061922,1.5214563200943616,-0.010130380983629388,4.667014248086087,-3.1455579279917254,849211.3518634563,402376.7078497448
457.6000000000355,25816.98123095589,28962.8077795821,-56.66379732465197,-1226.531924877842,1.5203884994193153,-0.010678206750462929,4.666223417649686,-3.1458349182303706,847615.3953204876,400780.7513067761
457.7000000000355,25811.238148150576,28840.71903772602,-57.43082805313574,-1220.8874185608076,1.5193527749667655,-0.010357244525499432,4.665383398485425,-3.14603062351866,846019.2714191204,399184.6274054089
457.80000000003554,25805.414989163393,28719.19525935173,-58.23158987184493,-1215.2377837428785,1.5184121303145959,-0.00940644652169555,4.664507748393713,-3.1460956180791166,844423.765437675,397589.1214239636
457.90000000003556,25799.510560007126,28598.237014980416,-59.044291562663155,-1209.5824437131491,1.5175930714114656,-0.00819058903130213,4.663613915748143,-3.146020844336677,842829.3793292766,395994.73531556514
458.0000000000356,25793.526117679216,28477.844239163518,-59.84442327909909,-1203.9277581689832,1.5168867022804353,-0.007063691310303848,4.662722206829419,-3.145835504548984,841238.2300372844,394403.58602357295
458.1000000000356,25787.46520761602,28358.015502284215,-60.60910063194901,-1198.2873687930144,1.5162590987473488,-0.006276035330864589,4.661852276324128,-3.145593177576779,839653.9702716594,392819.32625794795
458.20000000003563,25781.33266579857,28238.749852369863,-61.325418174483566,-1192.656499143509,1.515658987839993,-0.006001109073557605,4.661015045769293,-3.1453560579293,838075.67754705,391241.0335333386
458.30000000003565,25775.13359799652,28120.04723857943,-61.990678020525706,-1187.0261379043366,1.5150301218771887,-0.006288659628043422,4.660212863575996,-3.1451827416988074,836501.5092120891,389666.86519837764
458.4000000000357,25768.872156444337,28001.90932386503,-62.61441552180768,-1181.3791471439913,1.5143310408125534,-0.006990810646352916,4.659437407760996,-3.1451063669484425,834927.4849200969,388092.84090638545
458.5000000000357,25762.550263617057,27884.33881912469,-63.21892827280499,-1175.7050474034336,1.51354785799919,-0.007831828133634644,4.6586696355629575,-3.1451217775637677,833350.125178886,386515.4811651745
458.6000000000357,25756.167524794735,27767.338949047553,-63.827388223226485,-1169.9987007713544,1.512694841942726,-0.008530160564639958,4.6578896183675305,-3.1451947764248045,831767.6555743938,384933.0115606823
458.70000000003574,25749.722179925095,27650.911216414675,-64.45344869640573,-1164.2773263287736,1.5118062535916357,-0.008885883510903397,4.657086239496644,-3.1452799859050087,830183.4139972454,383348.7699835339
458.80000000003577,25743.212213147515,27535.056479241903,-65.09966777579015,-1158.5473717277453,1.5109200308947672,-0.008862226968684744,4.656257238529479,-3.1453372076347117,828599.2373615032,381764.5933477917
458.9000000000358,25736.636317839548,27419.774736440802,-65.75895307967171,-1152.8174280109913,1.510065111565216,-0.008549193295513312,4.655408778150285,-3.1453436665850694,827017.0706134563,380182.4265997448
459.0000000000358,25729.99442169232,27305.06530829641,-66.41896147227015,-1147.0942814439475,1.5092549383378535,-0.008101732273625074,4.654551638345019,-3.1452967000071657,825439.0713458782,378604.4273321667
459.10000000003583,25723.287754767134,27190.926614433243,-67.06666925187425,-1141.3869386316455,1.5084866577693457,-0.007682805685078975,4.653697539787388,-3.1452108820180427,823867.6207843547,377032.97677064326
