time[s],x[m],y[m],vx[m/s],vy[m/s],theta[rad],theta_dot[rad/s],gamma[rad],alpha[rad],mass[kg],mass_propellant[kg]
449.7000000000337,26080.49561977203,40290.80286215892,-18.227596149300478,-1637.5253380642891,1.5637694672089049,-0.03222772505677052,4.701258255893262,-3.137488788684357,972884.2139240032,526049.5699102917
449.8000000000337,26078.6923223486,40127.53933543011,-18.032974234312963,-1632.6352672880757,1.560302450097492,-0.03467017111412853,4.701344112425406,-3.141041662327914,971287.7102618938,524453.0662481823
449.90000000003374,26076.897567687294,39964.76893599286,-17.947546613065313,-1627.7039943724885,1.5568180274477461,-0.034844226497459586,4.701363130857597,-3.1445451034098513,969690.9795490032,522856.3355352917
450.00000000003376,26075.103349679277,39802.49137374917,-17.94218008016584,-1622.7756224369089,1.5534989848601173,-0.033190425876288863,4.701332954666899,-3.147833969806782,968093.9121661907,521259.2681524792
450.1000000000338,26073.2940699918,39640.70416030502,-18.092796874766428,-1617.8721344415624,1.5506478593950312,-0.02851125465086144,4.701206364459841,-3.1505585050648097,966496.5778156047,519661.93380189326
450.2000000000338,26071.45776440631,39479.40567656854,-18.36305585490516,-1612.984837364793,1.5485039817440285,-0.02143877651002661,4.701004953602318,-3.1525009718582897,964899.081843925,518064.4378302136
450.30000000003383,26069.585435789075,39318.59472861577,-18.723286172364983,-1608.109479527668,1.5472465218576967,-0.012574598863317394,4.700746464477676,-3.1534999426199795,963301.6552081829,516467.0111944714
450.40000000003386,26067.67099884769,39158.2703476619,-19.14436941385262,-1603.2438095387213,1.5469614648907228,-0.00285056966973838,4.700448526001734,-3.1534870611110115,961706.0780597454,514871.4340460339
450.5000000000339,26065.71198265876,38998.425698200335,-19.590161889319063,-1598.4464946156636,1.547633127432739,0.006716625420161344,4.700133843157886,-3.1525007157251466,960130.8203693157,513296.1763556042
450.6000000000339,26063.707313018018,38839.07150157317,-20.04669640741244,-1593.5419662716308,1.54909681224017,0.014636848074309717,4.699809682548434,-3.150712870308264,958532.0707355266,511697.42672181514
450.7000000000339,26061.65991242943,38680.210635261516,-20.474005885873773,-1588.6086631165217,1.5511346502102257,0.020378379700556934,4.699501682907935,-3.14836703269771,956933.1387286907,510098.4947149792
450.80000000003395,26059.57660917791,38521.84640046405,-20.83303251518453,-1583.6423479746932,1.5534785005305984,0.023438503203727673,4.699234601875677,-3.1457561013450785,955334.197444511,508499.5534307995
450.90000000003397,26057.467444637354,38363.98219704808,-21.091645405560715,-1578.6420341597002,1.5558224545519954,0.02343954021396918,4.699029149538776,-3.143206694986781,953735.2553058391,506900.61129212764
451.000000000034,26055.340504744312,38206.621925252046,-21.26939893041776,-1573.6027179603434,1.5579048308568404,0.020823763048448695,4.69887343190613,-3.14096860104929,952136.3137775188,505301.6697638073
451.100000000034,26053.19969307673,38049.76683664761,-21.408116675812686,-1568.5508860444268,1.5595426260509924,0.016377951941519708,4.698741487189871,-3.1391988611388784,950537.3745685344,503702.73055482295
451.20000000003404,26051.048147553633,37893.4165494912,-21.515455230983246,-1563.5028715640399,1.5605794317705843,0.010368057195918993,4.698628789934994,-3.1380493581644098,948938.4430499797,502103.79903626826
451.30000000003406,26048.889121774024,37737.57009480961,-21.590257796105703,-1558.4645468158951,1.5608724448206304,0.002930130500460106,4.69853632214264,-3.13766387732201,947339.5765949016,500504.93258119014
451.4000000000341,26046.72356902801,37582.22606750867,-21.655527460148193,-1553.4402730094312,1.5603322634392935,-0.005401813813367499,4.698449516345171,-3.138117252905878,945744.1558185344,498909.51180482295
451.5000000000341,26044.550012392963,37427.372728991264,-21.735566350463124,-1548.5333851741213,1.5590133824639463,-0.013188809753473096,4.698353674906928,-3.1393402924429816,944184.6902423626,497350.0462286511
451.60000000003413,26042.3641744911,37273.02546418172,-21.858379018637223,-1543.4726480954412,1.5570403013612684,-0.0197308110267784,4.698228108835008,-3.14118780747374,942592.2704425579,495757.6264288464
451.70000000003415,26040.161629949656,37119.1877592562,-22.025445414443777,-1538.3770492551953,1.5545828201655096,-0.024574811957588073,4.698072632749241,-3.1434898125837316,940996.4026447063,494161.7586309948
451.8000000000342,26037.936424666274,36965.860476182905,-22.252052833821413,-1533.2728307329428,1.5518349623390153,-0.0274785782649435,4.697877218135504,-3.1460422557964893,939399.6691241985,492565.025110487
451.9000000000342,26035.675452817293,36813.041011851565,-22.609718489806426,-1528.194643313411,1.5490975253891706,-0.027374369498447588,4.697595008230566,-3.1484974828413956,937802.6063800579,490967.9623663464
452.0000000000342,26033.36406949381,36660.7276212819,-23.11383323481178,-1523.1339056966826,1.5466885869910638,-0.02408938398106667,4.69721496375462,-3.150526376763556,936205.1836505657,489370.5396368542
452.10000000003424,26030.990445941246,36508.91866502884,-23.73623552565276,-1518.0895625305843,1.544874632627863,-0.018139543632008003,4.696754658066363,-3.1518800254384995,934607.5801349407,487772.9361212292
452.20000000003427,26028.546399866696,36357.613036053015,-24.440460745496992,-1513.0562897582697,1.543846774041835,-0.010278585860282343,4.696237343747481,-3.1523905697056462,933010.1810870891,486175.53707337764
452.3000000000343,26026.02778743734,36206.80937556947,-25.18612429357783,-1508.0366048354483,1.5436816529648834,-0.0016512107695152954,4.695689264434243,-3.15200761146936,931416.4404865032,484581.7964727917
452.4000000000343,26023.434647127237,36056.49379573355,-25.93140310101837,-1503.155798359231,1.5443240236946392,0.006423707297558574,4.695139383817546,-3.1508153601229067,929862.0829425579,483027.4389288464
452.50000000003433,26020.771039222524,35906.6858161138,-26.636079047125218,-1498.0797961975118,1.5455832472949929,0.012592236003537342,4.694610706628131,-3.149027459333138,928263.7666583782,481429.1226446667
452.60000000003436,26018.04536537333,35757.3889403885,-27.25673849192674,-1492.9687572530593,1.5472222959769846,0.016390486819916825,4.694134270991413,-3.1469119750144285,926664.877132011,479830.2331182995
452.7000000000344,26015.269798737427,35608.606800456895,-27.755666359030027,-1487.8213993160218,1.5489557758590318,0.017334798820472643,4.69373590332849,-3.144780127469458,925065.9605060344,478231.31649232295
452.8000000000344,26012.460115703285,35460.34396931006,-28.096830341411557,-1482.6283114683813,1.5504552701329828,0.014994942739509985,4.6934405579179534,-3.1429852877849704,923467.0421710735,476632.398157362
452.9000000000344,26009.623181535488,35312.60359624105,-28.369341677984135,-1477.4037306900807,1.5515332183474255,0.010779482144427484,4.693189180728635,-3.1416559623812095,921868.1401935344,475033.49617982295
453.00000000003445,26006.7640651277,35165.38699554496,-28.59116407786612,-1472.1660069609263,1.5520394440619594,0.005062257145337898,4.692970266685123,-3.1409308226231634,920269.3251300579,473434.6811163464
453.10000000003447,26003.883898444692,35018.69351915332,-28.8016668300947,-1466.93476391642,1.5518945432233042,-0.0014490083865504617,4.692757591537985,-3.1408630483146807,918673.8278156047,471839.18380189326
453.2000000000345,26000.984060500065,34872.49358764102,-28.998379446258493,-1461.9993151229314,1.5511020311631967,-0.007925120601075928,4.692556838724092,-3.141454807560895,917156.1864581829,470321.5424444714
453.3000000000345,25998.06127394185,34726.81372135584,-29.2278655821263,-1456.798662851862,1.5497014378565908,-0.014005933066058032,4.692328593452169,-3.1426271555955783,915574.3486896282,468739.7046759167
453.40000000003454,25995.11209696055,34581.66021445669,-29.491769812983286,-1451.535068991461,1.547819741692464,-0.01881696164126788,4.692074133492184,-3.1442543917997203,913978.7355304485,467144.091516737
453.50000000003456,25992.129557840442,34437.03298157869,-29.825391201066545,-1446.272328780009,1.5456349101664577,-0.021848315260063398,4.691769651876414,-3.1461347417099566,912381.2297931438,465546.5857794323
453.6000000000346,25989.096357832914,34292.92922209623,-30.332000075298712,-1441.037594824559,1.5434596853155318,-0.02175224850925845,4.69134336585193,-3.147883680536398,910783.3031574016,463948.65914369014
453.7000000000346,25985.99703200615,34149.34746899611,-30.993258267640854,-1435.8175310011952,1.5415718541932804,-0.018878311222514783,4.690806540268566,-3.149234686075286,909185.2451740032,462350.6011602917
453.80000000003463,25982.81988345402,34006.28651309847,-31.77148552129818,-1430.6095589763302,1.540188948224384,-0.013829059688962758,4.690184275042183,-3.149995326817799,907587.2472491985,460752.603235487
453.90000000003465,25979.558561141588,33863.74570677675,-32.61322312430546,-1425.4080632172497,1.5394514756879858,-0.0073747253639822605,4.689513051136382,-3.1500615754483965,905989.9432941204,459155.2992804089
454.0000000000347,25976.211278424646,33721.72288656504,-33.472827169434176,-1420.228202117034,1.5393728977953158,-0.0007857789266997152,4.688824717011871,-3.149451819216555,904400.0413165813,457565.3973028698
454.1000000000347,25972.78149491966,33580.19433698998,-34.29783504984373,-1415.2854957505497,1.5398594196062594,0.004865218109434947,4.688159859566272,-3.1483004399600127,902874.8456378704,456040.2016241589
454.2000000000347,25969.27680924474,33439.18998118833,-35.04685674922898,-1410.043558016516,1.5406976200453946,0.008382004391352737,4.687538937877754,-3.1468413178323598,901281.5259357219,454446.88192201045
454.30000000003474,25965.708692670007,33298.71484616825,-35.68116574733382,-1404.7513502007469,1.5416502842929782,0.009526642475836742,4.686994098115567,-3.1453438138225884,899683.1788898235,452848.534876112
454.40000000003477,25962.09176045915,33158.77254737365,-36.169322108573525,-1399.4229879459876,1.5424456476232495,0.007953633302712749,4.68654885068274,-3.144103203059491,898084.6433673626,451249.9993536511
454.5000000000348,25958.437061080498,33019.366961334395,-36.54699378649595,-1394.0558603925108,1.5428698779399153,0.004242303166656299,4.686178678900692,-3.143308800960777,896486.5983234172,449651.95430970576
454.6000000000348,25954.748450745734,32880.49519559552,-36.88610334762999,-1388.7176573887705,1.5428243493133464,-0.00045528626568883297,4.685833955015056,-3.1430096057017094,894901.3424640422,448066.69845033076
454.70000000003483,25951.02859904952,32742.118941088906,-37.19851696212179,-1383.7625450661405,1.5422969055681965,-0.005274437451497983,4.685513299674123,-3.1432163941059263,893415.3447833782,446580.7007696667
454.80000000003486,25947.274596188272,32604.27323502723,-37.540028612506525,-1378.457060616741,1.541271669165546,-0.010252364026507296,4.685162341839089,-3.1438906726735425,891843.8940997844,445009.25008607295
454.9000000000349,25943.48253189366,32466.967631015097,-37.920642946108714,-1373.0560401213304,1.5398347544771005,-0.01436914688445529,4.6847783038441815,-3.144943549367081,890248.7117267376,443414.0677130261
455.0000000000349,25939.64320596737,32330.20158862443,-38.39325926288973,-1367.6604239066814,1.5381506926244068,-0.016840618526937152,4.684324134683849,-3.1461734420594425,888651.0765949016,441816.43258119014
455.1000000000349,25935.739166690208,32193.97316217278,-39.04039277162982,-1362.2842645164772,1.5364845691435245,-0.016661234808823488,4.683738785037267,-3.1472542158937427,887052.9603839641,440218.31637025264
455.20000000003495,25931.75703928141,32058.281579110168,-39.821274088000955,-1356.9158306261145,1.5350386510762548,-0.014459180672696643,4.683050500285798,-3.1480118492095435,885454.7935138469,438620.14950013545
455.30000000003497,25927.68759380513,31923.126421566238,-40.69445476277967,-1351.5515754393025,1.5339550236524644,-0.010836274237904425,4.6822886389549945,-3.14833361530253,883856.8423419719,437022.19832826045
455.400000000035,25923.527025267373,31788.50759914138,-41.60568537757502,-1346.1882242485779,1.5333059026450362,-0.006491210074282547,4.681492524019003,-3.1481866213739664,882260.1964679485,435425.552454237
455.500000000035,25919.27619256178,31654.424714052497,-42.50832705589603,-1340.8288508888177,1.5330673150323015,-0.0023858761273458607,4.68069657298782,-3.1476292579555185,880667.8663898235,433833.222376112
455.60000000003504,25914.940537481074,31520.862597550247,-43.35655080708727,-1335.6211650224861,1.5331439810602328,0.0007666602793114851,4.679938662592405,-3.146794681532172,879117.9561115032,432283.3120977917
455.70000000003506,25910.529506816616,31387.795993787026,-44.1103066445932,-1330.66603763221,1.5334025981411128,0.0025861708087996406,4.6792520707185155,-3.1458494725774027,877635.7290607219,430801.08504701045
455.8000000000351,25906.053711280936,31255.249261458386,-44.75795535681386,-1325.4673232863986,1.533632379509234,0.0022978136812110655,4.678634127016909,-3.145001747507675,876099.9772296672,429265.33321595576
455.9000000000351,25901.52586335649,31123.21962949905,-45.278479244448285,-1320.2963195933587,1.5336380229348494,5.643425615576908e-05,4.678108235559234,-3.144470212624385,874579.0022540813,427744.3582403698
456.00000000003513,25896.953217054473,30991.695426182756,-45.7264630201662,-1315.2420331629278,1.5333152086449366,-0.0032281428991283983,4.677636401164315,-3.144321192519378,873092.3652911907,426257.7212774792
456.10000000003515,25892.334969028256,30860.712293087137,-46.18248026219109,-1309.831330956174,1.5326032906346307,-0.0071191801030596625,4.677145238558654,-3.144541947924023,871522.7676349407,424688.1236212292
456.2000000000352,25887.668572477032,30730.28058131332,-46.663965512235855,-1304.3171177381723,1.5315250157323348,-0.01078274902295957,4.6766276836919305,-3.1451026679595957,869928.7450519329,423094.1010382214
456.3000000000352,25882.944478070676,30600.400854681906,-47.24094406354592,-1298.797266314129,1.5302161450287994,-0.013088707035353385,4.6760321687295585,-3.145816023700759,868331.6532550579,421497.0092413464
456.4000000000352,25878.149531187,30471.072306940947,-47.94946883678086,-1293.285477409589,1.5288536010072344,-0.01362544021565049,4.67533025112061,-3.146476650113376,866733.6478839641,419899.00387025264
456.50000000003524,25873.272899141055,30342.29485102006,-48.76632045942059,-1287.7745592088952,1.5275809546146935,-0.012726463925409746,4.674538388254044,-3.1469574336393507,865135.4828449016,418300.83883119014
456.60000000003527,25868.306853975875,30214.06866647977,-49.66045165181506,-1282.2618454029175,1.5264990411678372,-0.010819134468563264,4.673679534836693,-3.1471804936688557,863537.4185138469,416702.77450013545
456.7000000000353,25863.247552761626,30086.39424227692,-50.593012142501756,-1276.7442420284847,1.525657870331729,-0.008411708361082695,4.672783118926824,-3.1471252485950947,861939.86504705,415105.2210333386
456.8000000000353,25858.09544518553,29959.27194017156,-51.52107576096814,-1271.2230210536163,1.5250554909609348,-0.006023793707941261,4.671882402446675,-3.14682691148574,860344.445125175,413509.8011114636
456.90000000003533,25852.854200880127,29832.70191817074,-52.41244305403302,-1265.7002200081965,1.5246344462021326,-0.004210447588021564,4.671002786008555,-3.146368339806422,858752.6969562297,411918.05294251826
457.00000000003536,25847.53017353863,29706.683327290182,-53.24027341496639,-1260.185908805569,1.524302496490378,-0.003319497117546339,4.670166137768714,-3.1458636412783356,857167.6478839641,410333.00387025264
457.1000000000354,25842.13098203206,29581.21515736072,-53.99191506570258,-1254.681699294647,1.5239528063581598,-0.0034969013221829567,4.669383152728413,-3.145430346370253,855589.6969562297,408755.05294251826
457.2000000000354,25836.663931646202,29456.29888820712,-54.670503858587786,-1249.1626915359998,1.5234821603269992,-0.004706460311605031,4.668651172411623,-3.145169012084624,854013.0038409954,407178.3598272839
457.3000000000354,25831.133795027174,29331.938669111307,-55.301366190289855,-1243.6021909581043,1.5228201080883301,-0.006620522386690316,4.667949562689627,-3.1451294546012964,852430.9420734172,405596.29805970576
457.40000000003545,25825.541137067412,29208.138428332186,-55.92657959761888,-1238.002407791199,1.5219595648799025,-0.008605432084275638,4.667244817999366,-3.1452852531194635,850842.3367267376,404007.6927130261
457.50000000003547,25819.882507999195,29084.900719771736,-56.58629068216017,-1232.3770856044912,1.5209541980310282,-0.010053668488743693,4.666504831486174,-3.1455506334551457,849248.7454181438,402414.1014044323
457.6000000000355,25814.152553555836,28962.226683917295,-57.299544433591095,-1226.7403585444263,1.5198905642449525,-0.010636337860757097,4.665714125215139,-3.145823560970187,847653.2396808391,400818.59566712764
457.7000000000355,25808.34628602597,28840.116861311584,-58.0626752986422,-1221.0982260571054,1.5188558414583004,-0.010347227866519666,4.664875214335297,-3.1460193728769967,846057.6832843547,399223.03927064326
457.80000000003554,25802.46032042042,28718.571799202564,-58.85965605551291,-1215.4506210902043,1.5179133147662898,-0.009425266920107308,4.664000580944089,-3.1460872661777994,844462.6565509563,397628.0125372448
457.90000000003556,25796.493425802328,28597.59201272628,-59.668946180921154,-1209.797864762832,1.51709052723648,-0.008227875298097273,4.663107497246788,-3.146016970010308,842868.8639484172,396034.21993470576
458.0000000000356,25790.44680204313,28477.177343995503,-60.466237591979684,-1204.146687307776,1.5163799200212285,-0.0071060721525166995,4.662216113442624,-3.1458361934213954,841278.5033527141,394443.85933900264
458.1000000000356,25784.32393770008,28357.32609317598,-61.22864343051632,-1198.5125081952187,1.5157491454539025,-0.006307745673260248,4.66134615908875,-3.1455970136348474,839695.6397052532,392860.9956915417
458.20000000003563,25778.12963469196,28238.03674145034,-61.94303008120367,-1192.893517256379,1.515148486205337,-0.00600659248565409,4.660508871183573,-3.145360384978236,838120.0459552532,391285.4019415417
458.30000000003565,25771.868999823142,28119.308932644377,-62.60634868816263,-1187.278088059661,1.5145222198788624,-0.006262663264746095,4.6597067831072945,-3.1451845632284323,836549.2726398235,389714.628626112
458.4000000000357,25765.546216891606,28001.144118621247,-63.22782931536299,-1181.6481402312952,1.5138279416101907,-0.006942782686715617,4.658931789896671,-3.14510384828648,834979.1338458782,388144.4898321667
458.5000000000357,25759.163300967426,27883.545339834956,-63.82915924180852,-1175.9877878629115,1.5130500461489116,-0.007778954612790512,4.658165126834907,-3.1451150806859958,833404.9015460735,386570.257532362
458.6000000000357,25752.71995013573,27766.516046598434,-64.43350831692702,-1170.2929323652152,1.5122013905194926,-0.008486556294189544,4.657386922257278,-3.145185531737786,831825.0422931438,384990.3982794323
458.70000000003574,25746.21441172228,27650.05794226964,-65.05538413450687,-1164.5810432879307,1.5113147936129392,-0.008865969065535429,4.656585357240383,-3.1452705636274434,830242.9519611126,383408.3079474011
458.80000000003577,25739.644625831334,27534.171931759043,-65.69785890946746,-1158.8601051059593,1.5104276436008195,-0.008871500121197352,4.6557578040981085,-3.1453301604972888,828660.806819511,381826.1628057995
458.9000000000358,25733.00918309745,27418.857966426378,-66.35442733883265,-1153.1396533266534,1.5095693201562845,-0.008583234445348654,4.654909961000332,-3.145340640844047,827080.7562824016,380246.11226869014
459.0000000000358,25726.30788136371,27304.11522728441,-67.01301733737237,-1147.4273914197092,1.5087542986860596,-0.008150214702248972,4.654052407624037,-3.1452981089379772,825505.1576495891,378670.51363587764
459.10000000003583,25719.541818463753,27189.94190135819,-67.66062899958719,-1141.733259262194,1.507981026919849,-0.007732717662105498,4.653196880100308,-3.1452158531804586,823936.6035724407,377101.9595587292
