time[s],x[m],y[m],vx[m/s],vy[m/s],theta[rad],theta_dot[rad/s],gamma[rad],alpha[rad],mass[kg],mass_propellant[kg]
449.7000000000337,26080.500883908608,40290.80385461837,-18.174954783541942,-1637.5154134697905,1.5638640694070003,-0.03128170307581555,4.701290331563286,-3.137426262156286,972881.4226642376,526046.7786505261
449.8000000000337,26078.712714366262,40127.54210532854,-17.881695423448654,-1632.617492898275,1.560661689648104,-0.03202379758896347,4.701436641270673,-3.140774951622569,971282.4740558391,524447.8300421276
449.90000000003374,26076.947014615365,39964.7739689224,-17.656997508954973,-1627.6813640613377,1.5576664071610353,-0.029952824870688014,4.701541461125164,-3.1438750539641283,969683.5256915813,522848.8816778698
450.00000000003376,26075.19980396318,39802.49952343422,-17.47210652184021,-1622.7444548818378,1.555096212615664,-0.02570194545371219,4.701622385962225,-3.1465261733465613,968084.5775714641,521249.93355775264
450.1000000000338,26073.46241355384,39640.716538872344,-17.37390409339326,-1617.8298456187922,1.5532254133653682,-0.018707992502956666,4.701650375026363,-3.1484249616609947,966485.6289630657,519650.9849493542
450.2000000000338,26071.728741156003,39479.42403851063,-17.336723978372095,-1612.9250036171036,1.5522688127907127,-0.009566005746555157,4.701640770559867,-3.149371957769154,964886.6805988079,518052.0365850964
450.30000000003383,26069.99666269002,39318.62179711334,-17.320784659812098,-1608.0224139729653,1.5523590146529005,0.0009020186218786277,4.7016179148351105,-3.14925890018221,963287.7340656047,516453.09005189326
450.40000000003386,26068.26855559609,39158.31057815794,-17.281070939318916,-1603.1121895539698,1.5535389372983799,0.011799226454793692,4.701609696355922,-3.148070759057542,961688.784968925,514854.1409552136
450.5000000000339,26066.55139753322,38998.49216364473,-17.171580628674814,-1598.184145132083,1.5557628476383947,0.022239103400148764,4.701644961963407,-3.145882114325012,960089.8336749797,513255.18966126826
450.6000000000339,26064.85769439099,38839.16946527465,-16.937031422299636,-1593.2269837008384,1.5588823790694284,0.03119531431033822,4.701758735217293,-3.1428763561478648,958490.8822589641,511656.23824525264
450.7000000000339,26063.201803084638,38680.34667475228,-16.558913063510015,-1588.2279052236981,1.5627050306653574,0.038226515959290344,4.701963327333342,-3.1392582966679843,956891.9305988079,510057.2865850964
450.80000000003395,26061.59609435919,38522.023885454335,-16.057087254486618,-1583.2278929794575,1.5670570314635013,0.04352000798143929,4.702247334437525,-3.1351903029740233,955292.9790607219,508458.33504701045
450.90000000003397,26060.063890947782,38364.19682606991,-15.322034114075247,-1578.2705938442532,1.5715857438684762,0.04528712404974939,4.702681169286585,-3.131095425418109,953694.0276447063,506859.3836309948
451.000000000034,26058.62867350124,38206.86147395242,-14.352174465428476,-1573.35352117486,1.57593256011198,0.04346816243503774,4.703267205650645,-3.1273346455386655,952095.0762286907,505260.4322149792
451.100000000034,26057.312864875046,38050.013715952104,-13.158086261955155,-1568.4775800031562,1.5797554000219167,0.03822839909936687,4.704000095667075,-3.1242446956451584,950496.124812675,503661.4807989636
451.20000000003404,26056.135940660286,37893.65006159448,-11.76924214760335,-1563.6365435762323,1.5827609150752167,0.030055150532999085,4.704862282477841,-3.1221013674026246,948897.1735187297,502062.52950501826
451.30000000003406,26055.112622175377,37737.7681643271,-10.233184849102916,-1558.8189726738224,1.5847343702549053,0.01973455179688631,4.705824370874899,-3.1210900006199935,947298.2227130657,500463.5786993542
451.4000000000341,26054.251441952856,37582.367190071855,-8.611802225218922,-1554.0097425524775,1.585562654242465,0.008282839875597506,4.706847371580882,-3.1212847173384173,945699.2727618938,498864.6287481823
451.5000000000341,26053.553913105858,37427.44799831877,-6.975288469973631,-1549.1919175308703,1.5852469691343156,-0.003156851081494041,4.707886477334301,-3.1226395081999856,944100.336116386,497265.6921026745
451.60000000003413,26053.014612056617,37273.01304213173,-5.393010492409928,-1544.3495618704196,1.5838997258086134,-0.013472433257021826,4.7088969027465275,-3.124997176937914,942501.5906329876,495666.9466192761
451.70000000003415,26052.622098492167,37119.066689283696,-3.925135644481024,-1539.463528480356,1.5817280998717205,-0.0217162593689296,4.709839308329251,-3.12811120845753,940902.7471271282,494068.1031134167
451.8000000000342,26052.358692438924,36965.614044214526,-2.6340605324536766,-1534.5264506917263,1.5790410922498694,-0.026870076218509942,4.710672452172219,-3.13163135992235,939303.9315753704,492469.2875616589
451.9000000000342,26052.203621921053,36812.66086419967,-1.5507051787196198,-1529.531800148568,1.576194542761715,-0.028465494881544647,4.7113751376863835,-3.1351805949246687,937705.1674152141,490870.52340150264
452.0000000000342,26052.135103272238,36660.212702321725,-0.6851864881643484,-1524.4816187794347,1.5735575175561685,-0.026370252055465452,4.711939525019938,-3.138382007463769,936106.4594074016,489271.81539369014
452.10000000003424,26052.130315845545,36508.27529342352,-0.0478742669308283,-1519.3740889820647,1.5715093452098725,-0.020481723462959574,4.712357471181484,-3.1408481259716114,934507.8345294719,487673.19051576045
452.20000000003427,26052.178761899107,36356.85193079338,0.4844605356389461,-1514.2336263013547,1.5702375345416448,-0.0127181066822766,4.712708918147723,-3.1424713836060785,932909.3128009563,486074.6687872448
452.3000000000343,26052.273949602797,36205.94343053054,0.9518770369112883,-1509.0850026284045,1.5698609076175103,-0.0037662692413455885,4.713019744661728,-3.1431588370442176,931310.9500079876,484476.3059942761
452.4000000000343,26052.41304271044,36055.54997849162,1.3909310764279614,-1503.9345203892244,1.5704336561654155,0.005727485479051889,4.713313841581094,-3.1428801854156783,929713.3710284954,482878.7270147839
452.50000000003433,26052.597351234937,35905.672922062666,1.8430852449659723,-1498.7705642895398,1.571940297028742,0.015066408633263487,4.7136187111785945,-3.141678414149853,928115.5361896282,481280.8921759167
452.60000000003436,26052.832380206717,35756.31396428273,2.3502897178004343,-1493.5895777993403,1.574297399311786,0.023571022830440554,4.713962563792631,-3.139665164480845,926516.7242999797,479682.08028626826
452.7000000000344,26053.126222712577,35607.47325525492,2.938425058598279,-1488.4070902781216,1.5773748520704776,0.030774527586916553,4.714363185735026,-3.1369883336645485,924917.8359943157,478083.1919806042
452.8000000000344,26053.498931092483,35459.14698789049,3.7270837990697205,-1483.2626736442728,1.5808601228972445,0.03485270826766932,4.714901735556851,-3.1340416126596065,923318.9503741985,476484.306360487
452.9000000000344,26053.974481822104,35311.3318574136,4.755507296208173,-1478.151304768881,1.5843815880288783,0.03521465131633863,4.71560616855337,-3.131224580524491,921720.0845294719,474885.44051576045
453.00000000003445,26054.575980298374,35164.024152484926,6.014984762679369,-1473.0770492867464,1.5875821307734972,0.032005427446189214,4.716472236814696,-3.128890106041199,920121.2562824016,473286.61226869014
453.10000000003447,26055.323502306626,35017.220613700956,7.475220082515426,-1468.035387839692,1.5901531499764356,0.025710192029385154,4.717480925400952,-3.127327775424517,918522.4990802532,471687.8550665417
453.2000000000345,26056.231510444908,34870.91914884439,9.080081382806108,-1463.0146485656558,1.5918735697123143,0.01720419735878708,4.718595319335069,-3.126721749622755,916923.9020343547,470089.25802064326
453.3000000000345,26057.306935052264,34725.11910747915,10.754246073541122,-1458.0004136524053,1.5926375354134819,0.007639657011675436,4.719764870643937,-3.127127335230455,915326.1067462688,468491.4627325573
453.40000000003454,26058.54778519462,34579.81316089176,12.408501423556181,-1453.0594658739187,1.592454542457097,-0.0018299295638485764,4.7209283417125185,-3.1284737992554215,913751.074031425,466916.4300177136
453.50000000003456,26059.9448479766,34435.01131469079,13.970627819793428,-1448.0184620096884,1.5914785334654393,-0.009760089916577569,4.722036781653314,-3.1305582481878744,912159.5499835735,465324.905969862
453.6000000000346,26061.481386312986,34290.71957232023,15.365383363848078,-1442.9174237055938,1.5899647482170145,-0.015137852484248225,4.723037408598085,-3.13307266038107,910564.939632011,463730.2956182995
453.7000000000346,26063.1359942652,34146.943469405145,16.54607952215652,-1437.7610291508493,1.588235676566822,-0.01729071650192542,4.723896698840309,-3.135661022273487,908969.8499103313,462135.2058966198
453.80000000003463,26064.885849484057,34003.688374367746,17.49855218856154,-1432.5509503739993,1.586633271610774,-0.016024049560480008,4.724603332670027,-3.137970061059253,907374.3756671672,460539.73165345576
453.90000000003465,26066.70746041424,33860.95943538811,18.216109301823504,-1427.2893897963684,1.5855055785729475,-0.011276930378266149,4.725151017621982,-3.139645439049035,905778.5280109172,458943.88399720576
454.0000000000347,26068.58744739947,33718.76148060421,18.799869852296823,-1421.9795478390304,1.585052748143354,-0.004528304295935388,4.725609124539712,-3.140556376396358,904182.0628009563,457347.4187872448
454.1000000000347,26070.520392003695,33577.096462527574,19.32944604223439,-1416.6501807663456,1.585355989472296,0.0030324132894193273,4.726032607376684,-3.140676617904388,902585.8903156047,455751.24630189326
454.2000000000347,26072.504279908644,33435.94818966386,19.838879049476695,-1411.4827286371362,1.5864016162577508,0.010456267854548213,4.726443401592492,-3.1400417853347413,901033.2448077922,454198.60079408076
454.30000000003474,26074.541791101907,33295.29791416849,20.375111932617507,-1406.5027549537087,1.5881005829322645,0.016989666745137334,4.726874331919808,-3.138773748987543,899528.7053790813,452694.0613653698
454.40000000003477,26076.642515813175,33155.16638439128,21.007247112692397,-1401.315297772061,1.5903590409342279,0.022584580019634357,4.727378949940721,-3.1370199090064927,897969.2689777141,451134.62496400264
454.5000000000348,26078.82838238495,33015.55492311571,21.858665717731043,-1396.1146127556976,1.59286984985543,0.025108089212021192,4.728044485794769,-3.1351746359393395,896397.7161212688,449563.0721075573
454.6000000000348,26081.120087581607,32876.461916916676,22.91705196658695,-1390.9300619903743,1.5953324663019495,0.024626164465195895,4.728863553217452,-3.1335310869155024,894824.8031574016,447990.15914369014
454.70000000003483,26083.535964920484,32737.884456751934,24.158773388776453,-1385.7746016474437,1.5974783363766054,0.021458700746559315,4.72982062210455,-3.132342285727945,893253.7655597454,446419.1215460339
454.80000000003486,26086.089802394068,32599.81860524268,25.53837473585595,-1380.6585150925337,1.5991016067037978,0.016232703271923807,4.73088411326527,-3.131782506561472,891688.8257404094,444854.18172669795
454.9000000000349,26088.788409900353,32462.25459672517,26.986075062848627,-1375.6400851750739,1.6000816973806231,0.009800906768253272,4.732003568867478,-3.1319218714868553,890147.4661212688,443312.8221075573
455.0000000000349,26091.62848398487,32325.14168737588,28.400740845183144,-1371.129093492939,1.6003513950098045,0.002696976291813739,4.733099415525435,-3.1327480205156304,888734.816218925,441900.1722052136
455.1000000000349,26094.60440253039,32188.52599185634,29.759185455192746,-1366.1569551954112,1.6000795817668745,-0.002718132429299711,4.734168673940333,-3.1340890921734585,887214.2998615032,440379.6558477917
455.20000000003495,26097.703182656496,32052.437985062657,30.987801261086403,-1360.8800679368178,1.599502465482348,-0.00577116284526581,4.7351554592370055,-3.1356529937546576,885627.6500812297,438793.00606751826
455.30000000003497,26100.90723400419,31916.885470763533,32.04051347691782,-1355.5251429912555,1.598871413461072,-0.0063105202127596675,4.7360215544909305,-3.1371501410298586,884031.7747150188,437197.1307013073
455.400000000035,26104.198158081697,31781.87209200514,32.909240775097444,-1350.1337875839386,1.5984398092217484,-0.004316042393234331,4.736758954630794,-3.1383191454090458,882435.9849200969,435601.34090638545
455.500000000035,26107.55816487551,31647.40169218806,33.60006793814149,-1344.703998170789,1.5984484160024073,8.606780658752203e-05,4.73737074431738,-3.1389223283149725,880841.3213458782,434006.6773321667
455.60000000003504,26110.97990090728,31513.466161531196,34.21736031770262,-1339.3553065686604,1.598972597687121,0.005241816847137935,4.737931059261106,-3.138958461573985,879273.4578204876,432438.8138067761
455.70000000003506,26114.460216206342,31380.01718181554,34.80315299061495,-1334.489797156553,1.5999485580614763,0.009759603743552997,4.7384628145891385,-3.138514256527662,877826.5204425579,430991.8764288464
455.8000000000351,26117.999544564158,31246.981263015863,35.39328357816956,-1330.3591879967526,1.6012144753387743,0.012659172772979644,4.738987012791837,-3.1377725374530625,876558.3193927532,429723.6753790417
455.9000000000351,26121.61252223063,31114.385485191564,36.12977666470945,-1325.957778242998,1.6026308243000036,0.014163489612293668,4.739630299557602,-3.136999475257598,875219.0180011516,428384.37398744014
456.00000000003513,26125.312451041264,30982.24195763504,36.99928810635839,-1321.4352755652235,1.604042210167661,0.014113858676573809,4.740380986242716,-3.136338776075055,873847.7327228313,427013.0887091198
456.10000000003515,26129.10906202244,30850.544824920406,37.96610981176565,-1316.9713271463502,1.6053035246367977,0.012613144691366762,4.7412093477876684,-3.1359058231508707,872489.5125079876,425654.8684942761
456.2000000000352,26133.00780649788,30719.26866181925,38.9874447544071,-1312.7616310115743,1.606288079506688,0.009845548698903799,4.742079053086484,-3.135790973579796,871192.8042560344,424358.16024232295
456.3000000000352,26137.00867144911,30588.365828081336,40.008649512297666,-1309.02833737913,1.6068986579249438,0.006105784182557061,4.742943092560936,-3.136044434635992,870012.6871906047,423178.04317689326
456.4000000000352,26141.11323607874,30457.920884541152,41.04564629628512,-1304.4494354018473,1.6072742229507992,0.0037556502585554706,4.7438444793661505,-3.136570256415351,868630.3147540813,421795.6707403698
456.50000000003524,26145.317042568073,30327.986688160574,42.03806489332595,-1299.341963805794,1.6075696479721173,0.0029542502131815617,4.744731048630252,-3.137161400658134,867124.5090900188,420289.8650763073
456.60000000003527,26149.612043543664,30198.579697415316,42.95000975592058,-1294.0699074525712,1.6079158955886368,0.003462476165194192,4.745566669741183,-3.137650774152546,865583.8890949016,418749.24508119014
456.7000000000353,26153.99019177172,30069.701942431617,43.78148228055687,-1288.7775498370088,1.6084149031291521,0.004990075405153153,4.746347247206943,-3.137932344077791,864043.347835136,417208.7038214245
456.8000000000353,26158.4456204449,29941.339235060077,44.554286731816696,-1283.6270737154052,1.6091083002962094,0.0069339716705721375,4.747084732857835,-3.1379764325616257,862541.710750175,415707.0667364636
456.90000000003533,26162.976041373055,29813.454715258187,45.304209281519476,-1278.8451980188813,1.609949787254017,0.008414869578075121,4.747800046134523,-3.1378502588805057,861131.2830158,414296.6390020886
457.00000000003536,26167.58322794475,29686.02102805443,46.07186571695116,-1274.3368720375483,1.6108608786425973,0.009110913885803441,4.748526840951556,-3.137665962308959,859787.1956134563,412952.5515997448
457.1000000000354,26172.27100895613,29559.030432484156,46.87781011378562,-1269.905955702727,1.611774116594792,0.009132379521948045,4.74928662171042,-3.1375125051156276,858462.0726886516,411627.42867494014
457.2000000000354,26177.04308095029,29432.486408875262,47.72071994159971,-1265.4402360889335,1.6126441935611262,0.008700769663341422,4.750081884895286,-3.1374376913341595,857129.4592853313,410294.8152716198
457.3000000000354,26181.902570648137,29306.41363752353,48.594896978476164,-1260.727713517323,1.6134711504729993,0.008269569118730334,4.7509150250286005,-3.1374438745556015,855739.3232990032,408904.6792852917
457.40000000003545,26186.85087706825,29180.834389900057,49.483064201106245,-1255.792476234694,1.6142717696342956,0.008006191612963188,4.751772460364213,-3.137500690729918,854298.1105304485,407463.466516737
457.50000000003547,26191.8879037562,29055.761063411395,50.3702668794964,-1250.7332648866163,1.6150634028746158,0.007916332403201793,4.752639818215903,-3.1375764153412877,852829.8219562297,405995.17794251826
457.6000000000355,26197.012849124607,28931.200665145072,51.24945368408584,-1245.60398266324,1.6158623806048127,0.007989777301968216,4.753510046566844,-3.1376476659620316,851347.4890704876,404512.8450567761
457.7000000000355,26202.224797198964,28807.157975368067,52.11948074357087,-1240.426897770037,1.61668241545673,0.008200348519173423,4.754381653771225,-3.137699238314495,849856.4442706829,403021.8002569714
457.80000000003554,26207.52301093916,28683.6338911215,52.982137401948215,-1235.2408424656917,1.6175281135102446,0.008456980535144355,4.755254857498951,-3.137726743988706,848365.8372150188,401531.1932013073
457.90000000003556,26212.907227263637,28560.628553025035,53.842163244786825,-1230.0533809646422,1.618396819860871,0.008687063506263611,4.756133273303504,-3.1377364534426335,846877.3236652141,400042.67965150264
458.0000000000356,26218.37757901832,28438.142403092348,54.70351754685595,-1224.8614993268616,1.6192814958300206,0.008846759691497081,4.75702030436371,-3.1377388085336895,845390.0812335735,398555.437219862
458.1000000000356,26223.93440170394,28316.17686232698,55.5682268561884,-1219.6554076536577,1.6201742264745835,0.008927306445629692,4.757918090828545,-3.1377438643539612,843901.7633624797,397067.11934876826
458.20000000003563,26229.578007754844,28194.73442500844,56.436060509033936,-1214.4243731854197,1.6210690923537732,0.008948658791895743,4.758827019639625,-3.1377579272858522,842409.8821368938,395575.2381231823
458.30000000003565,26235.30851933634,28073.81832830023,57.30511581495779,-1209.1609670821047,1.6219636051049096,0.008945127511364757,4.759746008770216,-3.137782403665307,840912.7802081829,394078.1361944714
458.4000000000357,26241.125802707666,27953.432054368834,58.172833713266364,-1203.8627393139561,1.6228586458406125,0.008950407357028707,4.760673238488869,-3.137814592648257,839409.9866290813,392575.3426153698
458.5000000000357,26247.029499333334,27833.578953313576,59.0369662566656,-1198.5310105525668,1.6237573346515426,0.00898688810930074,4.76160697094659,-3.137849636295048,837902.0259357219,391067.38192201045
458.6000000000357,26253.019132086483,27714.261886681896,59.89632753149242,-1193.1706663168027,1.624663430400041,0.009060957484982755,4.7625461731927885,-3.1378827427927476,836389.9616046672,389555.31759095576
458.70000000003574,26259.094218794304,27595.48324574434,60.75086707821007,-1187.7864093755345,1.6255798898264686,0.009164594264277452,4.76349074076016,-3.1379108509336913,834874.9107013469,388040.26668763545
458.80000000003577,26265.25435993916,27477.245064546176,61.6014114485851,-1182.3818119816463,1.62650802360566,0.009281337791912422,4.7644413423977126,-3.1379333187920526,833357.6982990032,386523.0542852917
458.9000000000358,26271.499270399254,27359.549206372965,62.449104600913046,-1176.9585817320915,1.6274474322518604,0.009394086462003721,4.765399000717962,-3.137951568466102,831838.7051349407,385004.0611212292
459.0000000000358,26277.828752664187,27242.397709309713,63.29482264934389,-1171.5149706325367,1.628396894501172,0.009494622493116348,4.7663646828531165,-3.1379677883519443,830317.5121417766,383482.86812806514
459.10000000003583,26284.242613136365,27125.792669736653,64.13860472176083,-1166.0503957306128,1.62935526948862,0.009583749874479682,4.767338609722955,-3.137983340234335,828793.9727130657,381959.3286993542
