time[s],x[m],y[m],vx[m/s],vy[m/s],theta[rad],theta_dot[rad/s],gamma[rad],alpha[rad],mass[kg],mass_propellant[kg]
449.7000000000337,26080.4936115924,40290.25055307509,-18.247677945620495,-1643.0484289025624,1.5637732396589805,-0.03219000055601298,4.701283447864112,-3.1375102082051316,974379.7265353923,527545.0825216809
449.8000000000337,26078.684169414577,40125.888296355806,-18.09442177823622,-1643.6225671928526,1.5603128161860675,-0.034604234729128984,4.701380558373958,-3.1410677421878903,974260.4752002483,527425.8311865368
449.90000000003374,26076.877502140138,39961.551622367624,-18.066672744396456,-1643.3667398818106,1.5568284746975884,-0.03484341488478998,4.7013957282367,-3.144567253539112,973924.7538257366,527090.1098120251
450.00000000003376,26075.06527935314,39797.39171299862,-18.12222786998048,-1641.5990936900264,1.55349442788304,-0.03334046814548477,4.701350053876108,-3.147855625993068,973176.2464404827,526341.6024267712
450.1000000000338,26073.230942827893,39633.475849451395,-18.34336525248525,-1639.1586354722883,1.550608742462251,-0.028856854207891264,4.701198727540133,-3.1505899850778816,972236.6094165569,525401.9654028454
450.2000000000338,26071.361969391328,39469.867776828294,-18.689734365661828,-1636.080726231029,1.5484069950922625,-0.022017473699884965,4.700965997916957,-3.1525590028246944,971118.3087573772,524283.6647436657
450.30000000003383,26069.449006297364,39306.61537366936,-19.129630939657694,-1632.5240315893336,1.5470681647243336,-0.013388303679290269,4.70067169163741,-3.1536035269130767,969866.0748706585,523031.430856947
450.40000000003386,26067.486821774077,39143.75832407803,-19.62184523288075,-1628.5704959132906,1.5466980649973152,-0.0037009972701835103,4.700341054988609,-3.153642989991294,968504.8159595256,521670.17194581416
450.5000000000339,26065.4748635713,38981.32757452877,-20.119582027757165,-1624.3074954926387,1.5473177277113992,0.006196627140840856,4.700003053941064,-3.1526853262296646,967061.3591724163,520226.7151587048
450.6000000000339,26063.417455970794,38819.34609861996,-20.574076005068353,-1619.8147590881256,1.5488594865049354,0.015417587935361696,4.699688164069345,-3.1508286775644097,965560.5004077678,518725.85639405635
450.7000000000339,26061.323583477173,38657.830684129425,-20.938724936194983,-1615.1541449053063,1.5511715354455364,0.023120489406010764,4.699425789155469,-3.1482542537099323,964021.8312183147,517187.1872046032
450.80000000003395,26059.20627572703,38496.79370738903,-21.17307750143113,-1610.3697674039497,1.5540300045306688,0.028584690851322495,4.699241777797258,-3.1452117732665896,962459.2684741741,515624.6244604626
450.90000000003397,26057.083163479943,38336.244933107686,-21.231122470846348,-1605.4877428134175,1.5571334507156054,0.0310344618493664,4.699165656141792,-3.1420322054261867,960882.02079351,514047.37677979853
451.000000000034,26054.966664634318,38176.19121231026,-21.164988456272408,-1600.5372079742867,1.5602599647441346,0.03126514028529281,4.699166073223446,-3.1389061084793113,959295.9093433147,512461.2653296032
451.100000000034,26052.866913553324,38016.63377216507,-20.997510809946274,-1595.5744014519137,1.5632227657584876,0.029628010143529376,4.699229895612496,-3.1360071298540086,957704.9482837444,510870.3042700329
451.20000000003404,26050.80223769914,37857.569919320325,-20.646758541841297,-1590.6385284474236,1.565709681611551,0.02486915853063428,4.699409539276778,-3.133699857665227,956111.6860767131,509277.04206300166
451.30000000003406,26048.786751187035,37698.998161907606,-20.15486512103184,-1585.7175741271585,1.5674804361957295,0.017707545841785674,4.699679415823704,-3.1321989796279746,954516.8193774944,507682.1753637829
451.4000000000341,26046.830140231825,37540.91761054141,-19.56610955209324,-1580.805513662013,1.5683713177724532,0.008908815767237767,4.700012308925597,-3.131640991153144,952920.9127612835,506086.268747572
451.5000000000341,26044.936709059828,37383.328429395486,-18.93431171997936,-1575.891811459205,1.5683106170511043,-0.0006070072134882892,4.700374576512898,-3.1320639594617936,951324.4512134319,504489.8071997204
451.60000000003413,26043.1048077613,37226.23201320037,-18.31901298526184,-1570.964161951143,1.5673271996142857,-0.00983417436818668,4.700728508959898,-3.1334013093456123,949727.9159351116,502893.2719214001
451.70000000003415,26041.326898898715,37069.63101896147,-17.779088625854207,-1566.0099423890765,1.5655483658819815,-0.017788337323042254,4.7010363546216585,-3.135487988739677,948131.5316577678,501296.88764405635
451.8000000000342,26039.590203115877,36913.52907489296,-17.366957828388426,-1561.0194406850856,1.5631880682716446,-0.023602976103369883,4.701264044396938,-3.138075976125293,946535.4178882366,499700.7738745251
451.9000000000342,26037.876478961563,36757.93097502136,-17.137241543126486,-1555.9809987160363,1.5605477301437207,-0.026403381279239583,4.701375639815607,-3.1408279096718865,944939.8708911663,498105.2268774548
452.0000000000342,26036.172511232977,36602.840707576455,-17.039677285873314,-1550.9026744489965,1.557853412918978,-0.02694317224742576,4.701402480728699,-3.1435490678097215,943345.0066333538,496510.3626196423
452.10000000003424,26034.46706184791,36448.2582268592,-17.054493850660354,-1545.8248071725193,1.5552998787984822,-0.025535341204958106,4.701356810456975,-3.1460569316584928,941750.964152885,494916.32013917353
452.20000000003427,26032.74305993527,36294.179893522196,-17.240019126412275,-1540.7833333700462,1.5531665020911183,-0.02133376707363819,4.701200321120614,-3.1480338190294956,940157.9061694866,493323.2621557751
452.3000000000343,26030.985063247317,36140.60353730902,-17.579966879518512,-1535.7635621317315,1.5517027523442313,-0.014637497468870293,4.700942427341265,-3.149239674997034,938566.0225024944,491731.3784887829
452.4000000000343,26029.18347160006,35987.52777053116,-18.01591647259452,-1530.7576677786178,1.5510630852616059,-0.006396670826253814,4.700620243183342,-3.149557157921736,936975.5397144085,490140.895700697
452.50000000003433,26027.33504509228,35834.952215468045,-18.48426507778257,-1525.7555506311487,1.5512988872093423,0.002358019477364153,4.7002747456740215,-3.148975858464679,935386.9403491741,488552.2963354626
452.60000000003436,26025.443316654204,35682.87750196819,-18.917284380752637,-1520.7471349984987,1.5523528926880283,0.010540054786860643,4.699950154573173,-3.147597261885145,933801.0454517131,486966.40143800166
452.7000000000344,26023.51826322555,35531.305129006774,-19.250534286546635,-1515.7237296142123,1.5540655229285099,0.017126302404814813,4.699689107085169,-3.1456235841566595,932218.5514331585,485383.907419447
452.8000000000344,26021.57628502061,35380.23737994864,-19.419782049413804,-1510.677490581377,1.5561774512736168,0.02111928345107013,4.699534673253586,-3.1433572219799695,930639.8877368694,483805.2437231579
452.9000000000344,26019.6333488988,35229.67754629868,-19.42936121810957,-1505.598336499622,1.5584339165222145,0.022564652485976763,4.699484952586997,-3.1410510360647823,929065.851237846,482231.2072241345
453.00000000003445,26017.7007373183,35079.625233714425,-19.326115804971987,-1500.5231258424867,1.5606484737976243,0.02214557275409689,4.699510107044343,-3.138861633246719,927497.48954351,480662.84552979853
453.10000000003447,26015.78990987183,34930.07622106043,-19.108274464693828,-1495.4901265399612,1.5626330771485784,0.019846033509541384,4.699612410105411,-3.136979332956833,925936.0474048381,479101.40339112666
453.2000000000345,26013.919281302336,34781.023512395,-18.706285694930948,-1490.5270866543344,1.5641011594557415,0.014680823071630093,4.699839524664162,-3.1357383652084203,924382.9842944866,477548.3402807751
453.3000000000345,26012.100842527772,34632.46394667104,-18.18438774565817,-1485.5956572395237,1.564866708517102,0.0076554906136045014,4.7001491225503615,-3.1352824140332594,922834.55594976,475999.91193604853
453.40000000003454,26010.33944292757,34484.39636617316,-17.613996002052048,-1480.675804978811,1.5648548717261614,-0.00011836790940558325,4.700493624801422,-3.1356387530752605,921289.0015064006,474454.35749268916
453.50000000003456,26008.63260223224,34336.82101661379,-17.068406953304585,-1475.7534955937192,1.564104121769668,-0.007507499564933123,4.700823603114189,-3.1367194813445205,919746.4695239788,472911.8255102673
453.6000000000346,26006.97065832146,34189.739403589534,-16.61943910779712,-1470.8161302425137,1.5627627205547328,-0.01341401214935231,4.701089993714497,-3.1383272731597645,918207.1210132366,471372.4769995251
453.7000000000346,26005.336208715045,34043.15524629447,-16.344496064166144,-1465.841572950676,1.5610946453597372,-0.016680751949956055,4.701239195130471,-3.140144549770734,916671.1300464397,469836.4860327282
453.80000000003463,26003.717137007327,33897.07136326218,-16.19071707720417,-1460.8388303229262,1.5592892175235797,-0.018054278361574666,4.701306269648364,-3.142017052124784,915138.6897388225,468304.04572511103
453.90000000003465,26002.102357641685,33751.48784139421,-16.147793656426845,-1455.8352186796417,1.5575206812087825,-0.017685363147971516,4.701297662293908,-3.1437769810851255,913609.9995532756,466775.35553956416
454.0000000000347,26000.480470173567,33606.40212215523,-16.218874681191874,-1450.8571923897923,1.5559658480084577,-0.015548332003248148,4.7012106237456495,-3.1452447757371917,912086.452434135,465251.80842042353
454.1000000000347,25998.837841618366,33461.80926770387,-16.42628555202038,-1445.9285445135756,1.5548296887425574,-0.011361592659003356,4.7010290974769395,-3.146199408734382,910568.4995532756,463733.85553956416
454.2000000000347,25997.161970358884,33317.70550385906,-16.7587125948029,-1441.0376384481306,1.5542964471181235,-0.0053324162443384926,4.700759889872496,-3.1464634427543725,909056.4838062053,462221.83979249385
454.30000000003474,25995.44912936681,33174.088733365206,-17.12840992073936,-1436.1677049385755,1.5544207118230404,0.001242647049169876,4.700463076597602,-3.1460423647745617,907550.5413013225,460715.89728761103
454.40000000003477,25993.703636881426,33030.95928719729,-17.454924853859765,-1431.2944616791206,1.5551387265717105,0.007180147486700334,4.700194383058692,-3.1450556564869814,906047.7001147991,459213.0561010876
454.5000000000348,25991.93836521466,32888.319424192276,-17.652716667638884,-1426.3986300502017,1.5562627611585724,0.01124034586861999,4.700013887506011,-3.1437511263474387,904548.053996635,457713.40998292353
454.6000000000348,25990.165075789624,32746.17192268005,-17.732894250377566,-1421.4750151222634,1.5576185280870682,0.013557669284958516,4.699914632084002,-3.1422961039969337,903051.7075610881,456217.06354737666
454.70000000003483,25988.394206406352,32604.518023974,-17.708693832702874,-1416.538987060494,1.5590490080283659,0.01430479941297712,4.6998882504017425,-3.1408392423733766,901558.77079351,454724.12677979853
454.80000000003486,25986.63617695635,32463.357022331133,-17.58029450003019,-1411.6100164286759,1.5603974447519553,0.013484367235894551,4.699935550998598,-3.1395381062466425,900069.3498950725,453234.70588136103
454.9000000000349,25984.90091343263,32322.686575756026,-17.3526352371669,-1406.704465751077,1.5615153703417488,0.011179255897936214,4.70005394089034,-3.1385385705485915,898583.5438647991,451748.8998510876
455.0000000000349,25983.196785087137,32182.503554719184,-17.04128345493421,-1401.8302103684382,1.562278584311812,0.007632139700633299,4.700233125878663,-3.1379545415668506,897101.4458423381,450266.80182862666
455.1000000000349,25981.532948176755,32042.80482666091,-16.638369103832524,-1396.9872805827376,1.5625557665835206,0.002771822717084158,4.700479364118797,-3.137923597535276,895623.146159721,448788.5021460095
455.20000000003495,25979.910397044845,31903.589490148926,-16.22551131909655,-1392.1533651198617,1.5623325237003578,-0.0022324288316275765,4.700734534040722,-3.138402010340364,894148.73563726,447314.09162354853
455.30000000003497,25978.322032214426,31764.858848367305,-15.883648304203764,-1387.3064178162213,1.5617094123716482,-0.006231113287095472,4.700940208783529,-3.139230796411881,892678.3179126506,445843.67389893916
455.400000000035,25976.75993557639,31626.61446395011,-15.620966380383646,-1382.4438441719312,1.5608007067159275,-0.009087056557207032,4.701089930754565,-3.140289224038637,891212.011394096,444377.3673803845
455.500000000035,25975.215369689995,31488.857656514734,-15.445658863923851,-1377.5680743537612,1.5597333320066256,-0.010673747093019574,4.701177184793252,-3.141443852786627,889749.9382739788,442915.2942602673
455.60000000003504,25973.677722133947,31351.588437323884,-15.376475560483897,-1372.6921919085066,1.5586598780167698,-0.010734539898557941,4.701187756568071,-3.1425278785513013,888292.222331596,441457.5783178845
455.70000000003506,25972.138484461062,31214.805603373825,-15.392376728837656,-1367.8283395006094,1.5577034112997084,-0.009564667170614882,4.701136305904869,-3.1434328946051613,886838.9822192913,440004.3382055798
455.8000000000351,25970.589489321166,31078.506801854935,-15.489951398954902,-1362.9880151888979,1.5569804736056345,-0.007229376940737248,4.701024768518991,-3.1440442949133565,885390.3306079631,438555.68659425166
455.9000000000351,25969.024860842317,30942.689560215516,-15.64628478850363,-1358.1724163942001,1.5565742492015506,-0.0040622440408399855,4.700869387952293,-3.144295138750743,883946.2820239788,437111.6380102673
456.00000000003513,25967.44203799292,30807.35224035784,-15.82822849396702,-1353.3731985767877,1.5565207697150083,-0.0005347948654236359,4.700694122752882,-3.144173353037874,882506.5659595256,435671.92194581416
456.10000000003515,25965.841848200154,30672.494163670897,-16.001897927681636,-1348.5807668694115,1.5568081680138464,0.0028739829883808834,4.700523805242568,-3.1437156372287216,881071.2734790569,434236.6294653454
456.2000000000352,25964.228148291804,30538.11548335949,-16.1369990834988,-1343.7868031140758,1.5573819837694598,0.005738157556135292,4.700380956919546,-3.1429989731500863,879640.5023608928,432805.85834718135
456.3000000000352,25962.60786174714,30404.21666991385,-16.20286544663249,-1338.9881344563773,1.5581453882550016,0.007634044855417721,4.700288742722327,-3.142143354467325,878214.3569751506,431379.71296143916
456.4000000000352,25960.989431550825,30270.797670995817,-16.18430196314238,-1334.189989180335,1.5589805874069806,0.008351991519790457,4.700259142551636,-3.1412785551446554,876792.9452319866,429958.3012182751
456.50000000003524,25959.380489761104,30137.856791492988,-16.08941789721035,-1329.4087950282935,1.5597804087320213,0.007998213250405449,4.70028688473099,-3.1405064759989685,875376.3730884319,428541.7290747204
456.60000000003527,25957.78960109832,30005.39246166307,-15.908886627846856,-1324.6432982991869,1.5604264507793748,0.0064604204735345915,4.700379617696413,-3.139953166917038,873964.736003471,427130.0919897595
456.7000000000353,25956.22273762488,29873.402310781246,-15.668634734378395,-1319.9015088182116,1.5608360187462405,0.004095679668657032,4.700518474386557,-3.139682455640317,872558.1304126506,425723.48639893916
456.8000000000353,25954.68282514007,29741.884367777027,-15.399124848132802,-1315.1794300421784,1.5609684650255704,0.0013244627932993938,4.700680751956535,-3.139712286930964,871156.647746635,424322.00373292353
456.90000000003533,25953.169851423856,29610.837728303715,-15.129737162139103,-1310.4663947331242,1.5608237407700383,-0.0014472425553215106,4.70084418607199,-3.1400204453019516,869759.4501147991,422924.8061010876
457.00000000003536,25951.680773641554,29480.26245681528,-14.890777823019523,-1305.7527148843633,1.5604431796636842,-0.0038056110635407846,4.7009854947287435,-3.1405423150650593,868365.8939624553,421531.24994874385
457.1000000000354,25950.209869457987,29350.158836170125,-14.709041835652533,-1301.0362064515193,1.5599041750228337,-0.005390046408504167,4.701083825985259,-3.1411796509624255,866976.0301929241,420141.3861792126
457.2000000000354,25948.749543317037,29220.52622764305,-14.603261409497001,-1296.3260852707247,1.5593087452706687,-0.0059542975216519915,4.70112434265899,-3.1418155973883213,865589.9106860881,418755.26667237666
457.3000000000354,25947.293963607313,29091.36436582901,-14.555797097219045,-1291.6186181404203,1.5587360934630714,-0.005726518075972426,4.701120034006246,-3.1423839405431746,864207.58329351,417372.93927979853
457.40000000003545,25945.83567204466,28962.672349888693,-14.58291562653146,-1286.9201594031622,1.558285440238445,-0.00450653224626471,4.701057825619707,-3.1427723853812624,862829.0975757366,415994.4535620251
457.50000000003547,25944.369777560387,28834.449078600825,-14.658944842748523,-1282.232712878675,1.5580217508585716,-0.002636893798733944,4.7009571192958814,-3.1429353684373096,861454.4997974163,414619.8557837048
457.6000000000355,25942.89417435676,28706.693297548103,-14.756032036287994,-1277.557810527224,1.5579728417623706,-0.0004890909620106267,4.700839306638358,-3.142866464875987,860083.8353687053,413249.19135499385
457.7000000000355,25941.409473637294,28579.40423473381,-14.847007194642838,-1272.8906281429095,1.5581305149076137,0.0015767314524306212,4.7007255007313296,-3.142594985823716,858717.1484790569,411882.5044653454
457.80000000003554,25939.91884391512,28452.581334542392,-14.906297221748204,-1268.2290019141824,1.5584529404529648,0.003224255453510655,4.700635889395807,-3.142182948942842,857354.486003471,410519.8419897595
457.90000000003556,25938.42767092601,28326.224654498525,-14.911729891091706,-1263.566800438681,1.5588696144475493,0.0041667399458456735,4.700588228981399,-3.1417186145338496,855995.8962817913,409161.2522680798
458.0000000000356,25936.942771142054,28200.332836673344,-14.848997839557379,-1258.9181782518165,1.5592916761043432,0.004220616567938961,4.7005944813134874,-3.1413028052091443,854641.4305835491,407806.7865698376
458.1000000000356,25935.467462457345,28074.90444570751,-14.753086847095885,-1254.283909658338,1.5596745150029057,0.003828388985624712,4.700627363708658,-3.1409528487057523,853291.1326099163,406456.4885962048
458.20000000003563,25934.006975227807,27949.93909595936,-14.604872295368086,-1249.6534974815206,1.559950415194486,0.0027590019158030997,4.700702374918912,-3.1407519597244256,851945.0448413616,405110.4008276501
458.30000000003565,25932.564270526702,27825.43488834267,-14.427047011032494,-1245.0420761669068,1.5600808020490773,0.001303868545913031,4.700801901023275,-3.140721098974198,850603.2163501506,403768.57233643916
458.4000000000357,25931.13990587666,27701.39080356832,-14.243646500422651,-1240.4408477434833,1.5600582126939897,-0.00022589355087576798,4.700906755695781,-3.1408485430017916,849265.6866870647,402431.0426733532
458.5000000000357,25929.732052108902,27577.805306068574,-14.07853767755368,-1235.8549749974613,1.5599056458277063,-0.0015256686628350726,4.700997733829814,-3.1410920880021074,847932.5002856975,401097.85627198603
458.6000000000357,25928.337176791276,27454.677777614044,-13.948753176271907,-1231.2752845452942,1.5596678935679824,-0.0023775225972385537,4.701060761040241,-3.141392867472258,846603.6984058147,399769.0543921032
458.70000000003574,25926.95034413628,27332.00756655031,-13.868326549977553,-1226.7021106373425,1.5594072268486765,-0.00260666719306002,4.701084087671774,-3.141676860823097,845279.327434135,398444.68342042353
458.80000000003577,25925.570048349895,27209.793766262505,-13.802957863836076,-1222.138002878066,1.559143727843087,-0.0026349900558931424,4.7010953531601745,-3.1419516253170876,843959.4336353069,397124.7896215954
458.9000000000358,25924.19136688984,27088.03451842153,-13.786814600534598,-1217.5924784097695,1.558938836116497,-0.002048917265899286,4.701066451964861,-3.1421276158483638,842643.8678394085,395809.223825697
459.0000000000358,25922.811273415766,26966.729618751226,-13.800934740751863,-1213.0489967030298,1.558830422544668,-0.0010841357182902222,4.701012408315966,-3.1421819857712983,841331.9224048381,394497.27839112666
459.10000000003583,25921.42878291346,26845.878854316466,-13.824905023058784,-1208.50764434758,1.5588307807653259,3.582206578430164e-06,4.700949828909819,-3.142119048144493,840023.626628471,393188.9826147595
