time[s],x[m],y[m],vx[m/s],vy[m/s],theta[rad],theta_dot[rad/s],gamma[rad],alpha[rad],mass[kg],mass_propellant[kg]
0.1,-0.00025117414477771304,0.06394288687137613,-0.0025117414477771305,0.6394288687137613,1.5707916194207443,-4.707374152252523e-05,1.5747244080125022,-0.003932788591757941,6939072.483721779,4178687.003089635
0.2,-0.0007611278228437091,0.1919052125646506,-0.005099536780659961,1.2796232569327444,1.5707820495499545,-9.569870789838096e-05,1.574781491769695,-0.003999442219740468,6935794.640215919,4175409.159583776
0.30000000000000004,-0.0015291167414370743,0.38396370263478563,-0.007679889185933652,1.92058490070135,1.570767603763554,-0.00014445786400326148,1.5747950296120634,-0.004027425848509347,6932516.79671006,4172131.3160779164
0.4,-0.00255358135917796,0.6401952103132477,-0.010244646177408856,2.5623150767846203,1.5707482690776104,-0.00019334685943624589,1.5747945047246223,-0.004046235647011898,6929238.953204201,4168853.472572057
0.5,-0.003832147623410175,0.9606767166679562,-0.012785662642322154,3.204815063547085,1.570724032869108,-0.0002423620850263671,1.5747858221499218,-0.00406178928081391,6925961.109698341,4165575.6290661977
0.6,-0.005361634792907754,1.3454853423136175,-0.01529487169497579,3.8480862564566123,1.5706948826688387,-0.0002915020026914693,1.5747709755251031,-0.004076092856264424,6922683.266192482,4162297.7855603383
0.7,-0.007138057632827929,1.794698324474842,-0.017764228399201745,4.492129821612246,1.5706608060614122,-0.00034076607426592517,1.5747508286692935,-0.004090022607881272,6919405.423174904,4159019.94254276
0.7999999999999999,-0.009156623939565178,2.308393040240296,-0.020185663067372496,5.1369471576545385,1.57062179067218,-0.00039015389232289674,1.5747258122564218,-0.004104021584241835,6916127.580157326,4155742.099525182
0.8999999999999999,-0.011411733168076536,2.8866470067487424,-0.02255109228511358,5.782539665084462,1.5705778241334671,-0.00043966538712806154,1.574696166530804,-0.004118342397336772,6912849.7371397475,4152464.256507604
0.9999999999999999,-0.013896974152587623,3.529537869790485,-0.024852409845110866,6.428908630417425,1.5705288940676774,-0.0004893006578976851,1.5746620351877239,-0.00413314112004648,6909571.894122169,4149186.413490026
1.0999999999999999,-0.016605121172300587,4.2371434039644855,-0.027081470197129635,7.0760553417400045,1.5704749881016407,-0.0005390596603675921,1.5746235068642378,-0.004148518762597142,6906294.05061631,4145908.5699841664
1.2,-0.019528132000704294,5.009541501262813,-0.02923010828403707,7.72398097298327,1.5704160938433769,-0.0005889425826369337,1.574580640719418,-0.004164546876041175,6903016.207598732,4142630.7269665883
1.3,-0.022657143574574067,5.8468102291327995,-0.03129011573869771,8.372687278699862,1.570352198903203,-0.0006389494017393846,1.5745334746219017,-0.0041812757186987515,6899738.364581154,4139352.88394901
1.4000000000000001,-0.025982467836076183,6.749027749547468,-0.033253242615021154,9.022175204146686,1.5702832909114686,-0.0006890799173447309,1.5744820335437641,-0.004198742632295582,6896460.521563576,4136075.040931432
1.5000000000000002,-0.029493589719447592,7.716272365511436,-0.035111218833714083,9.672446159639673,1.5702093574961613,-0.0007393341530724034,1.5744263355883632,-0.004216978092201895,6893182.679034279,4132797.198402135
1.6000000000000003,-0.033179165235960734,8.748622532825731,-0.03685575516513139,10.323501673142944,1.570130386257543,-0.0007897123861829452,1.5743663943699955,-0.004236008112452394,6889904.836504982,4129519.3558728383
1.7000000000000004,-0.03702701734428054,9.846156837063562,-0.03847852108319805,10.975343042378316,1.5700463647858802,-0.0008402147166283846,1.5743022184362285,-0.004255853650348307,6886626.993487404,4126241.51285526
1.8000000000000005,-0.04102406034304527,11.008953970501352,-0.03997042998764728,11.627971334377904,1.5699572820093484,-0.0008908277653196454,1.5742337512096491,-0.004276469200300781,6883349.150958107,4122963.6703259633
1.9000000000000006,-0.04515600157166593,12.237092790327512,-0.04131941228620665,12.281388198261606,1.5698631336912499,-0.0009414831809860626,1.5741607067591317,-0.00429757306788181,6880071.307940529,4119685.827308385
2.0000000000000004,-0.04940764861872748,13.5306522723649,-0.04251647047061544,12.935594820373868,1.5697639166674744,-0.0009921702377547453,1.5740830962060575,-0.004319179538583073,6876793.465411232,4116407.9847790883
2.1000000000000005,-0.05376296147816248,14.889711511185258,-0.043553128594349996,13.590592388203568,1.5696596278426587,-0.0010428882481563827,1.5740009685247975,-0.004341340682138872,6873515.622881935,4113130.1422497914
2.2000000000000006,-0.05820505156627179,16.314349766812164,-0.04442090088109307,14.246382556269047,1.5695502641749797,-0.0010936366767906448,1.5739143644265459,-0.004364100251566194,6870237.780352638,4109852.2997204945
2.3000000000000007,-0.06271618185140378,17.804646406700606,-0.04511130285131984,14.902966398884425,1.5694358226423302,-0.0011444153264940956,1.57382331913076,-0.004387496488429843,6866959.937823341,4106574.4571911977
2.400000000000001,-0.06727776421942114,19.360680952454757,-0.04561582368017366,15.560345457541505,1.5693163002579686,-0.00119522384361515,1.573727861517697,-0.004411561259728414,6863682.095294044,4103296.614661901
2.500000000000001,-0.07187035930425106,20.982533045045106,-0.0459259508482992,16.21852092590347,1.5691916940417556,-0.0012460621621310545,1.5736280170770192,-0.004436323035263534,6860404.2527647475,4100018.772132604
2.600000000000001,-0.07647360186473129,22.670282456602628,-0.04603242560480218,16.877494115575207,1.56906200237361,-0.0012969166814565305,1.5735237643603162,-0.004461761986706225,6857126.410235451,4096740.929603307
2.700000000000001,-0.08106620754913428,24.424009102236933,-0.04592605684402987,17.53726645634305,1.56892722483786,-0.001347775357498569,1.5734150902135022,-0.004487865375642164,6853848.5672178725,4093463.086585729
2.800000000000001,-0.08562603507048526,26.24379302854331,-0.045598275213509766,18.197839263063745,1.568787361042968,-0.0013986379489218435,1.5733020187688085,-0.004514657725840587,6850570.724688576,4090185.244056432
2.9000000000000012,-0.0901300839534279,28.1297144020498,-0.04504048882942643,18.859213735064902,1.5686424106388808,-0.0014495040408702897,1.5731845707497882,-0.004542160110907467,6847292.8816709975,4086907.401038854
3.0000000000000013,-0.09455445341575615,30.081853521054956,-0.04424369462328244,19.521391190051553,1.5684923740539964,-0.0015003658488432262,1.5730627441028522,-0.004570370048855743,6844015.039141701,4083629.558509557
3.1000000000000014,-0.09887432199250075,32.10029082744192,-0.04319868576744601,20.184373063869618,1.5683372528497819,-0.0015512120421461114,1.5729365280126455,-0.004599275162863625,6840737.1961241225,4080351.715491979
3.2000000000000015,-0.10306400626555355,34.18510689517277,-0.04189684273052808,20.848160677308556,1.5681770486127173,-0.0016020423706455565,1.5728059422702427,-0.00462889365752539,6837459.353594826,4077073.872962682
3.3000000000000016,-0.10709695798262768,36.33638241871082,-0.04032951717074135,21.51275523538049,1.5680117629885946,-0.0016528562412277082,1.5726710039101517,-0.004659240921557117,6834181.511065529,4073796.030433385
3.4000000000000017,-0.11094549214171974,38.55419823657255,-0.038485341590920645,22.178158178617352,1.567841402699789,-0.0017036028880550206,1.5725316062825803,-0.004690203582791153,6830903.668047951,4070518.187415807
3.5000000000000018,-0.11458092091054402,40.83863531980144,-0.03635428768824279,22.84437083228885,1.5676659770553412,-0.001754256444479597,1.5723877147681466,-0.004721737712805485,6827625.8250303725,4067240.344398229
3.600000000000002,-0.11797369089265049,43.18977477210793,-0.03392769982106471,23.51139452306493,1.5674854954127904,-0.0018048164255090441,1.5722393580127225,-0.004753862599932157,6824347.982012794,4063962.501380651
3.700000000000002,-0.12109337812989192,45.60769780656967,-0.031196872372414256,24.179230344617395,1.567299967276049,-0.0018552813674138295,1.5720865603803582,-0.004786593104309178,6821070.1394834975,4060684.658851354
3.800000000000002,-0.12390869092966017,48.09248579264467,-0.02815312799768248,24.84787986075005,1.567109402244601,-0.0019056503144809587,1.5719293456322556,-0.004819943387654568,6817792.296465919,4057406.815833776
3.900000000000002,-0.12638747065796038,50.644220209437236,-0.024787797283001987,25.517344167925657,1.566913810007593,-0.001955922370079427,1.5717677362536158,-0.004853926246022766,6814514.453448341,4054128.9728161977
4.000000000000002,-0.12849669409341258,53.26298266927557,-0.02109223435452209,26.187624598383348,1.56671320030529,-0.002006097023030235,1.5716017541720282,-0.004888553866738254,6811236.610919044,4050851.130286901
4.100000000000001,-0.13020247236789748,55.94885492958844,-0.017057782744849037,26.858722603128673,1.566507582949428,-0.00205617355862086,1.571431419561724,-0.0049238366122961175,6807958.767901466,4047573.2872693227
4.200000000000001,-0.13146995151397742,58.70191888133743,-0.012674791460799445,27.53063951748987,1.5662969696702613,-0.002106132791666238,1.5712567153215504,-0.004959745651289094,6804680.924883888,4044295.4442517445
4.300000000000001,-0.13226335282124554,61.52225650212626,-0.007934013072681196,28.203376207888322,1.566081373382092,-0.0021559628816926117,1.571077641088792,-0.0049962677067001415,6801403.082354591,4041017.6017224477
4.4,-0.13254603518704064,64.40994995036485,-0.0028268236579509966,28.87693448238587,1.5658608070409432,-0.0022056634114875693,1.5708942188911177,-0.005033411850174474,6798125.238848732,4037739.7582165883
4.5,-0.13228048468122347,67.36508148313894,0.002655505058171727,29.55131532774088,1.565635283857027,-0.002255231839161947,1.570706465987634,-0.005071182130606866,6794847.395831154,4034461.91519901
4.6,-0.1314281239455442,70.3877334798127,0.008523607356792758,30.226519966737527,1.5654048208231919,-0.002304630338352567,1.5705143357770672,-0.005109514953875349,6791569.552325294,4031184.071693151
4.699999999999999,-0.1299495153261027,73.47798845396802,0.014786086194415165,30.902549741553337,1.5651694349945158,-0.0023538582867599373,1.570317852196855,-0.005148417202339273,6788291.708575294,4027906.227943151
4.799999999999999,-0.1278043630403718,76.63592904175542,0.02145152285730883,31.579405877873924,1.564929143477713,-0.002402915168027541,1.570117038538468,-0.005187895060754899,6785013.865557716,4024628.3849255727
4.899999999999999,-0.12495151419724057,79.8616380255756,0.028528488431312247,32.257089838201885,1.5646839634362322,-0.002451800414808961,1.5699119171616573,-0.005227953725425172,6781736.021807716,4021350.5411755727
4.999999999999998,-0.12134896092488426,83.15519831068038,0.03602553272356311,32.935602851047726,1.5644339120822024,-0.0025005135402972204,1.569702509914754,-0.005268597832551514,6778458.178057716,4018072.6974255727
5.099999999999998,-0.11695384185773314,86.51669290167365,0.04395119067151114,33.61494590993279,1.5641790066777126,-0.002549054044897112,1.5694888379848886,-0.005309831307175994,6775180.334307716,4014794.8536755727
5.1999999999999975,-0.11172244358031541,89.94620493802339,0.0523139827741772,34.295120363497375,1.5639192645326947,-0.0025974214501797302,1.5692709219663403,-0.005351657433645629,6771902.490557716,4011517.0099255727
5.299999999999997,-0.10561010604310093,93.44381768238725,0.06112337537214472,34.97612744363867,1.5636547047810476,-0.002645597516471092,1.5690487544472476,-0.00539404966619994,6768624.647051857,4008239.1664197133
5.399999999999997,-0.09857094824466635,97.00961453255445,0.07039157798434592,35.65796850167206,1.5633853534496578,-0.00269351331389891,1.5688222522891362,-0.005436898839478399,6765346.803301857,4004961.3226697133
5.4999999999999964,-0.09055821779654288,100.6436789979744,0.08012730448123462,36.34064465419954,1.5631112370859008,-0.002741163637569975,1.5685914354013586,-0.005480198315457763,6762068.959551857,4001683.4789197133
5.599999999999996,-0.08152432053507563,104.34609472352183,0.09033897261467252,37.02415725547428,1.5628323822660684,-0.0027885481983254273,1.5683563308562682,-0.00552394859019989,6758791.115801857,3998405.6351697133
5.699999999999996,-0.07142082096963782,108.11694547780233,0.10103499565437805,37.70850754280496,1.562548815645484,-0.0028356662058435815,1.568116964484855,-0.005568148839370846,6755513.272051857,3995127.7914197133
5.799999999999995,-0.06019839295775748,111.95631512959281,0.11222428011880342,38.39369651790473,1.5622605649278436,-0.0028825071764053667,1.5678733480069897,-0.005612783079146144,6752235.427813576,3991849.947181432
5.899999999999995,-0.04780684331605703,115.86428769533967,0.12391549641700449,39.079725657468636,1.5619676584798607,-0.0029290644798289772,1.567625498979611,-0.005657840499750266,6748957.583575294,3988572.102943151
5.999999999999995,-0.03419507435683588,119.84094729189403,0.13611768959221152,39.76659596554356,1.5616701260903332,-0.0029753238952767657,1.56737342486703,-0.00570329877669673,6745679.739825294,3985294.259193151
6.099999999999994,-0.019311162722916768,123.88637814845578,0.1488391163391911,40.4543085656175,1.561367997586253,-0.0030212850408016813,1.5671171526837115,-0.005749155097458436,6742401.895587013,3982016.4149548695
6.199999999999994,-0.0031023611590213357,128.0006646304365,0.1620880156389543,41.14286481980711,1.5610613028672342,-0.0030669471901879995,1.5668567086428622,-0.005795405775627982,6739124.051104591,3978738.5704724477
6.299999999999994,0.014484964725141717,132.1838912158543,0.17587325884163052,41.83226585417791,1.5607500731338793,-0.003112297333549465,1.5665921026384164,-0.005842029504537161,6735846.206622169,3975460.725990026
6.399999999999993,0.03350528355222228,136.43614250731875,0.19020318827080557,42.522512914644544,1.5604343399891996,-0.0031573314467972166,1.5663233569081756,-0.005889016918976031,6732568.3621397475,3972182.881507604
6.499999999999993,0.054013900128233934,140.7575032083937,0.20508616576011654,43.2136070107496,1.560114135546318,-0.0032020444288162137,1.5660504923175296,-0.005936356771211626,6729290.517657326,3968905.037025182
6.5999999999999925,0.07606697132877648,145.1480581593563,0.22053071200542543,43.90554950962619,1.5597894927964455,-0.003246427498724157,1.5657735253515754,-0.0059840325551299145,6726012.6726866225,3965627.192054479
6.699999999999992,0.09972146375349242,149.60789231356912,0.23654492424715942,44.598341542128246,1.5594604449075438,-0.003290478889017921,1.565492481449986,-0.006032036542442221,6722734.827715919,3962349.347083776
6.799999999999992,0.12503514160519885,154.1370907375786,0.2531367785170644,45.29198424009466,1.5591270250789275,-0.003334198286162167,1.5652073876685102,-0.006080362589582666,6719456.982256935,3959071.5016247914
6.8999999999999915,0.15206656459086984,158.73573859933154,0.27031422985670994,45.986478617529364,1.5587892665850782,-0.0033775849384931407,1.5649182703592341,-0.006129003774155928,6716179.137286232,3955793.6566540883
6.999999999999991,0.18087508181641096,163.40392118015538,0.2880851722554112,46.68182580823836,1.5584472027492862,-0.0034206383579215953,1.564625156105324,-0.006177953356037769,6712901.292315529,3952515.811683385
7.099999999999991,0.21152082902142982,168.141723886798,0.30645747205018853,47.378027066426064,1.5581008669551455,-0.0034633579414074297,1.564328070999469,-0.00622720404432342,6709623.446856544,3949237.966224401
7.19999999999999,0.24406472636731028,172.9492322515679,0.3254389734588045,48.075083647699145,1.557750292700607,-0.0035057425453844395,1.564027040548003,-0.006276747847395958,6706345.60139756,3945960.1207654164
7.29999999999999,0.2785684737974062,177.8265318966636,0.34503747430095905,48.77299645095689,1.5573955135877973,-0.0035477911280977262,1.5637220901555955,-0.0063265765677982255,6703067.755938576,3942682.275306432
7.39999999999999,0.3150945445232669,182.7737085819892,0.36526070725860704,49.47176685325619,1.5570365632830379,-0.003589503047594012,1.563413245621658,-0.00637668233862021,6699789.910479591,3939404.4298474477
7.499999999999989,0.35370628801627246,187.79084815753805,0.3861174349300556,50.17139575548849,1.5566734774852,-0.0036308579783777806,1.5631005111531406,-0.006427033667940618,6696512.065020607,3936126.5843884633
7.599999999999989,0.3944678291763505,192.87803658737377,0.40761541160078035,50.87188429835723,1.5563062921647874,-0.0036718532041258734,1.562783911010075,-0.006477618845287525,6693234.2195616225,3932848.738929479
7.699999999999989,0.43744415461921343,198.03535996169725,0.42976325442862967,51.57323374323477,1.555935045216936,-0.003712469478512897,1.5624634518506357,-0.00652840663369969,6689956.373370216,3929570.8927380727
7.799999999999988,0.48270102125395975,203.26290444917475,0.452568666347463,52.27544487477498,1.5555597748984529,-0.0037527031848306257,1.5621391578082353,-0.0065793829097824386,6686678.527667091,3926293.0470349477
7.899999999999988,0.5303049874995848,208.56075634482863,0.47603966245625046,52.97851895653872,1.5551805205004348,-0.003792543980180348,1.561811046332167,-0.006630525831732292,6683400.682208107,3923015.2015759633
7.999999999999988,0.5803233560974901,213.9290020342735,0.5001836859790537,53.68245689444871,1.5547973213834547,-0.003831991169800653,1.5614791449593002,-0.006681823575845458,6680122.836504982,3919737.3558728383
8.099999999999987,0.6328241686446554,219.3677280536905,0.5250081254716535,54.387260194170146,1.5544102169831182,-0.003871044003365589,1.5611434813087635,-0.00673326432564525,6676844.990313576,3916459.509681432
8.199999999999987,0.6878763895765471,224.87702099415094,0.5505222093189166,55.092929404604405,1.554019250275642,-0.003909667074760727,1.5608040484257013,-0.006784798150059279,6673567.144122169,3913181.663490026
8.299999999999986,0.7455498041195385,230.45696758557096,0.576734145429915,55.79946591420028,1.5536244659984861,-0.0039478427715577994,1.5604608585267257,-0.006836392528239532,6670289.297930763,3909903.8172986195
8.399999999999986,0.8059149501494354,236.1076546489069,0.6036514602989679,56.5068706333594,1.5532259095553511,-0.003985564431349289,1.5601139355782454,-0.006888026022894289,6667011.451495216,3906625.9708630727
8.499999999999986,0.8690431033508038,241.82916912025408,0.631281532013684,57.2151447134718,1.5528236268378441,-0.004022827175070196,1.5597633053775797,-0.006939678539735539,6663733.605059669,3903348.124427526
8.599999999999985,0.9350062469649832,247.62159803896495,0.659631436141794,57.924289187108705,1.5524176638138807,-0.004059630239634436,1.5594089980351258,-0.0069913342212450935,6660455.758135841,3900070.2775036977
8.699999999999985,1.0038770641873975,253.48502854777192,0.6887081722241422,58.63430508806979,1.552008066500426,-0.004095973134546063,1.559051043868504,-0.007042977368077796,6657177.911212013,3896792.4305798695
8.799999999999985,1.0757289401254413,259.4195478808693,0.7185187593804379,59.345193330973906,1.5515948811221265,-0.004131853782995648,1.5586894717514497,-0.007094590629323161,6653900.064288185,3893514.5836560414
8.899999999999984,1.1506359466650076,265.42524337603226,0.7490700653956639,60.05695495162951,1.5511781539561629,-0.004167271659635387,1.5583243120877588,-0.007146158131595914,6650622.217364357,3890236.7367322133
8.999999999999984,1.2286728387721308,271.5022024867595,0.780368921071232,60.76959110727208,1.5507579313917654,-0.004202225643975259,1.5579555948406103,-0.007197663448844871,6647344.370440529,3886958.889808385
9.099999999999984,1.3099151312704373,277.65051273426667,0.8124229249830641,61.48310247507193,1.5503342614532478,-0.004236699385176266,1.5575833363424376,-0.007249074889189799,6644066.523516701,3883681.042884557
9.199999999999983,1.3944390613820048,283.87026176776544,0.8452393011156754,62.19749033498781,1.5499071932193937,-0.004270682338540154,1.5572075586606415,-0.007300365441247791,6640788.6765928725,3880403.195960729
9.299999999999983,1.4823215263477505,290.1615373405319,0.8788246496574575,62.91275572766419,1.5494767758453256,-0.004304173740682325,1.5568282930614223,-0.007351517216096726,6637510.829180763,3877125.3485486195
