time[s],x[m],y[m],vx[m/s],vy[m/s],theta[rad],theta_dot[rad/s],gamma[rad],alpha[rad],mass[kg],mass_propellant[kg]
0.1,-0.00020244992184971432,1.5633721753356635,-0.002024499218497143,0.6337217533566357,1.5707925325845884,-3.794210308088405e-05,1.5739909343979155,-0.0031984018133270897,6939084.061114357,4178698.5804822133
0.2,-0.0008099736964009327,1.6907641648231801,-0.006075237745512182,1.2739198948751658,1.5707811378357017,-0.0001139474888671887,1.5755652229513815,-0.004784085115679737,6935806.228350685,4175420.7477185414
0.30000000000000004,-0.0018600280373842705,1.8822524166947732,-0.010500543409833378,1.9148825187159302,1.570761409112948,-0.00019728722753663077,1.5762799207267628,-0.0055185116138147805,6932528.399004982,4172142.9183728383
0.4,-0.003345935326645529,2.1379138060519085,-0.014859072892612585,2.5566138935713516,1.5707334144213292,-0.0002799469161886226,1.5766082742394103,-0.005874859818081113,6929250.5691709975,4168865.088538854
0.5,-0.0052438417187047805,2.4578254739713614,-0.01897906392059251,3.1991166791945282,1.5706975180072844,-0.00035896414044731185,1.5767288522911815,-0.006031334283897127,6925972.737383888,4165587.2567517445
0.6,-0.00751219713782569,2.8420647702505946,-0.0226835541912091,3.842392962792331,1.570654390843453,-0.00043127163831508563,1.5766997549188435,-0.00604536407539058,6922694.902911232,4162309.4222790883
0.7,-0.010106677159438348,3.290709184553818,-0.02594480021612658,4.486444143032235,1.5706047332407076,-0.0004965760274537787,1.5765791940672547,-0.005974460826547068,6919417.0652647475,4159031.584632604
0.7999999999999999,-0.012980876883471111,3.803836312061567,-0.028741997240327638,5.131271275077487,1.5705492639413552,-0.0005546929935242796,1.576397608643326,-0.00584834470197082,6916139.2254209975,4155753.744788854
0.8999999999999999,-0.016087194879950754,4.381523853725783,-0.03106317996479642,5.776875416642165,1.5704887057347774,-0.000605582065777493,1.5761734343737095,-0.005684728638932102,6912861.382891701,4152475.902259557
0.9999999999999999,-0.01937167324100406,5.0238496281308205,-0.032844783610533064,6.423257744050379,1.570423884023518,-0.0006482171125926286,1.5759096974020623,-0.0054858133785442575,6909583.537432716,4149198.0568005727
1.0999999999999999,-0.022785732240834685,5.730834364362182,-0.03414058999830626,7.0698473623136175,1.5703555104478457,-0.0006837357567239987,1.5756253312797515,-0.005269820831905747,6906306.841631935,4145921.3609997914
1.2,-0.026288516407964833,6.502026517999245,-0.035027841671301484,7.711921536370633,1.5702841449869913,-0.0007136546085439406,1.5753383336907147,-0.005054188703723428,6903040.801104591,4142655.3204724477
1.3,-0.029843458546677262,7.337052299446941,-0.03554942138712429,8.35025781447696,1.5702102585675997,-0.0007388641939162426,1.5750535853619747,-0.004843326794375047,6899783.839190529,4139398.358558385
1.4000000000000001,-0.0334130343320712,8.235522915799304,-0.035695757853939386,8.984706163523644,1.5701343332014308,-0.0007592536616874948,1.5747692524972117,-0.004634919295780859,6896536.247637794,4136150.767005651
1.5000000000000002,-0.03696113581073289,9.19709948143112,-0.035481014786616916,9.615765656318153,1.5700568184748689,-0.0007751472656200299,1.5744861893631956,-0.0044293708883267335,6893297.01155381,4132911.5309216664
1.6000000000000003,-0.04045586658257384,10.221521802426592,-0.03494730771840956,10.244223209954717,1.5699780802535295,-0.0007873822133947798,1.5742077296346884,-0.004229649381158884,6890064.540606544,4129679.059974401
1.7000000000000004,-0.04386879302108479,11.308591004710681,-0.034129264385109465,10.870692022840899,1.569898415767589,-0.000796644859403769,1.573935883336287,-0.00403746756869805,6886837.597003029,4126452.116370885
1.8000000000000005,-0.047174228693662626,12.45815351469109,-0.03305435672577838,11.495625099804075,1.5698180679161642,-0.0008034785142482546,1.5736717046315236,-0.003853636715359432,6883615.265948341,4123229.7853161977
1.9000000000000006,-0.050348993480410636,13.670101156263765,-0.03174764786748009,12.119476415726755,1.5697372303410002,-0.0008083757516394373,1.573415876861296,-0.003678646520295814,6880396.633379982,4120011.1527478383
2.0000000000000004,-0.053372012326509274,14.944364631815981,-0.030230188460986344,12.742634755522152,1.5696560554553032,-0.0008117488569712923,1.5731686879531765,-0.003512632497873369,6877180.9168272475,4116795.436195104
2.1000000000000005,-0.05622394892082305,16.280907022670515,-0.028519365943137774,13.365423908545353,1.5695746617226711,-0.0008139373263204259,1.57293014034648,-0.0033554786238088052,6873967.465167091,4113581.9845349477
2.2000000000000006,-0.05888689658508832,17.679718193601058,-0.026629476642652628,13.988111709305413,1.5694931397782859,-0.0008152194438535948,1.5727000465410865,-0.0032069067628006653,6870755.741778419,4110370.261146276
2.3000000000000007,-0.06134411163882611,19.140810034121063,-0.024572150537377938,14.610918405200046,1.569411557680815,-0.0008158209747087556,1.5724780915334196,-0.0030665338526045804,6867545.3054991225,4107159.824866979
2.400000000000001,-0.06357979111672568,20.664212387546975,-0.0223567947789957,15.234023534259096,1.5693299652754695,-0.0008159240534542509,1.5722638825380413,-0.0029339172625717502,6864335.798419044,4103950.317786901
2.500000000000001,-0.06557888527009989,22.249969658097577,-0.019990941533742125,15.85757270550603,1.5692483978571523,-0.0008156741831725085,1.5720569819603993,-0.002808584103247025,6861126.929766701,4100741.449134557
2.600000000000001,-0.06732694257789892,23.898137969746696,-0.017480573077990367,16.481683116491183,1.5691668791857758,-0.0008151867137650264,1.5718569324624063,-0.002690053276630522,6857918.467120216,4097532.9864880727
2.700000000000001,-0.06880997574723038,25.608782703352805,-0.014830331693314576,17.106447336061084,1.569085424078445,-0.0008145510733070444,1.5716632705668276,-0.0025778464883825514,6854710.2273741225,4094324.746741979
2.800000000000001,-0.07001427724656752,27.38197525775631,-0.012043014993371372,17.731925544035057,1.5690040419484104,-0.0008138213003464476,1.5714754979944234,-0.0024714560460130652,6851502.092364357,4091116.6117322133
2.9000000000000012,-0.0709233324623685,29.217743308386904,-0.009090552158009746,18.357680506305936,1.5689227957549376,-0.0008124619347272924,1.5712915174270599,-0.0023687216721222093,6848294.938067482,4087909.4574353383
3.0000000000000013,-0.0715212829029202,31.116126552490154,-0.005979504405517052,18.9838324410325,1.5688417361444824,-0.0008105961045531391,1.5711113055657189,-0.0022695694212364614,6845088.524981544,4084703.044349401
3.1000000000000014,-0.07179282138392301,33.07717479153024,-0.0027153848100280814,19.61048239040087,1.5687609035749635,-0.0008083256951894373,1.5709347927815367,-0.002173889206573243,6841882.653399513,4081497.1727673695
3.2000000000000015,-0.07172313369645197,35.1009465001571,0.000696876874710315,20.237717086268585,1.5686803295370544,-0.0008057403790914452,1.5707618922353332,-0.0020815626982788604,6838677.151690529,4078291.671058385
3.3000000000000016,-0.07129737143856392,37.18750113331188,0.004257622578880493,20.86554633154784,1.5686000466897558,-0.0008028284729847633,1.5705922764215137,-0.001992229731757833,6835472.003008888,4075086.5223767445
3.4000000000000017,-0.07050104079641699,39.336904511686164,0.00796330642146925,21.494033783742797,1.5685200815329892,-0.0007996515676671648,1.5704258376565043,-0.0019057561235151788,6832267.082354591,4071881.6017224477
3.5000000000000018,-0.06931998163355273,41.54922818959758,0.011810591628642574,22.123236779114112,1.5684404548777824,-0.0007962665520669586,1.5702624722498066,-0.0018220173720242538,6829062.277911232,4068676.7972790883
3.600000000000002,-0.06774030521900413,43.82454830592703,0.015796764145485954,22.753201163294513,1.5683611830947308,-0.0007927178305164607,1.5701020613377383,-0.0017408782430075043,6825857.500323341,4065472.0196911977
3.700000000000002,-0.06574835232625088,46.16294483085948,0.019919528927532494,23.383965249324508,1.56828227895729,-0.0007890413744063245,1.5699444813573498,-0.0016622024000596536,6822652.6765928725,4062267.195960729
3.800000000000002,-0.06333087122410302,48.56450483272453,0.024174811021478632,24.01560001865052,1.5682037482238866,-0.0007853073340353575,1.5697896976522876,-0.0015859494284009568,6819447.668047951,4059062.187415807
3.900000000000002,-0.06047511562042321,51.02932435650956,0.02855755603679816,24.648195237850306,1.5681255877296658,-0.000781604942207668,1.5696377209422987,-0.0015121332126328824,6816242.299151466,4055856.8185193227
4.000000000000002,-0.0571683715865169,53.55749975550616,0.0330674403390631,25.28175398996591,1.5680477945255906,-0.0007779320407512326,1.5694883708083187,-0.00144057628272809,6813036.566973732,4052651.0863415883
4.100000000000001,-0.05339794659330713,56.149127515694616,0.03770424993209772,25.916277601884573,1.5679703660813304,-0.0007742844426027228,1.5693414796169982,-0.0013711135356677673,6809830.4715147475,4049444.990882604
4.200000000000001,-0.0491511754144138,58.804304267693134,0.04246771178893324,26.55176751998517,1.567893300167255,-0.0007706591407539763,1.5691968974708905,-0.0013035973036354953,6806624.013506935,4046238.5328747914
4.300000000000001,-0.044415413231189166,61.5231266106598,0.04735762183224633,27.188223429666678,1.5678165949880634,-0.0007670517919169103,1.5690544853663744,-0.001237890378311013,6803417.196368263,4043031.7157361195
4.4,-0.03917802927616135,64.3056910063525,0.05237383955027819,27.825643956927017,1.5677402493009738,-0.0007634568708967781,1.568914114193361,-0.001173864892387133,6800210.026690529,4039824.546058385
4.5,-0.03342640055666894,67.15209367291406,0.057516287194924076,28.464026665615606,1.5676642625361719,-0.0007598676480181387,1.5687756636754655,-0.001111401139293644,6797002.51155381,4036617.0309216664
4.6,-0.027147911405712547,70.06243053729531,0.06278489150956396,29.10336864381249,1.5675886348060983,-0.0007562773007344066,1.5686390234641885,-0.0010503886580901511,6793794.660235451,4033409.179603307
4.699999999999999,-0.020332212032971475,73.03684327665341,0.0681569937274107,29.744127393580992,1.5675133225360407,-0.0007531227005773404,1.5685048870920284,-0.0009915645559877007,6790585.569659279,4030200.089027135
4.799999999999999,-0.012969814196748239,76.07549216680955,0.07362397836223236,30.386488901561336,1.5674382657212929,-0.0007505681474788649,1.5683734132911158,-0.0009351475698229361,6787374.877520607,4026989.3968884633
4.899999999999999,-0.005051573596918681,79.17854798450784,0.07918240599829557,31.03055817698288,1.567363397731189,-0.0007486799010381645,1.5682445765594333,-0.0008811788282443445,6784162.380450294,4023776.899818151
4.999999999999998,0.0034304689147140553,82.3462031472478,0.08482042511632736,31.676551627399586,1.567288628873788,-0.0007476885740101722,1.568118629317238,-0.0008300004434500519,6780947.65608506,4020562.1754529164
5.099999999999998,0.012484736273014255,85.57864036030851,0.090542673583002,32.324372130607046,1.5672138784554643,-0.0007475041832353253,1.567995268929951,-0.0007813904744866651,6777730.902422951,4017345.421790807
5.1999999999999975,0.022120246285559506,88.87603183113553,0.09635510012545251,32.97391470827019,1.567139077036001,-0.0007480141946347428,1.567874173731794,-0.0007350966957930805,6774512.332110451,4014126.851478307
5.299999999999997,0.03234656550870229,92.23854066651826,0.10226319223142782,33.62508835382722,1.5670641653098076,-0.0007491172619342242,1.567755059635468,-0.000690894325660274,6771292.130206154,4010906.64957401
5.399999999999997,0.043173779698554855,95.66632168232073,0.10827214189852565,34.27781015802462,1.5669890933530184,-0.0007507195678930798,1.5676376716381526,-0.0006485782851342048,6768070.464434669,4007684.983802526
5.4999999999999964,0.05461241507925613,99.15952286525382,0.11438635380701269,34.93201182933091,1.5669138189465726,-0.0007527440644583951,1.5675217961000218,-0.0006079771534492906,6764847.474932716,4004461.9943005727
5.599999999999996,0.06667339604964759,102.71828619947321,0.12060980970391455,35.587633342193904,1.566838306634785,-0.0007551231178742738,1.5674072464709963,-0.0005689398362112019,6761623.284503029,4001237.803870885
5.699999999999996,0.07936830160160582,106.3427420469957,0.12694905551958238,36.24455847522479,1.5667625327539505,-0.0007577388083454493,1.5672937724328753,-0.0005312396789247664,6758398.126299904,3998012.64566776
5.799999999999995,0.0927089874507303,110.03301718661935,0.13340685849124476,36.90275139623656,1.5666864778566012,-0.0007605489734940548,1.567181250078709,-0.0004947722221078088,6755172.074786232,3994786.5941540883
5.899999999999995,0.10670729600335996,113.78924084685808,0.13998308552629657,37.56223660238731,1.5666101208795633,-0.000763569770378728,1.5670696467525875,-0.00045952587302422465,6751945.08577256,3991559.6051404164
5.999999999999995,0.12137395402415284,117.61156755432543,0.14666658020792875,38.2232670746735,1.5665334170826024,-0.0007670379696100556,1.5669592434780828,-0.0004258263954803887,6748716.666094826,3988331.185462682
6.099999999999994,0.1367201325906533,121.50014548399616,0.1534617856650045,38.885779296707355,1.5664563289269846,-0.0007708815561784527,1.5668498715163255,-0.0003935425893408784,6745486.94514756,3985101.4645154164
6.199999999999994,0.15275739629994606,125.45511803624872,0.16037263709292754,39.54972552252558,1.5663788249232269,-0.000775040037578155,1.5667413869439755,-0.00036256202074858024,6742256.021563576,3981870.540931432
6.299999999999994,0.1694975951392353,129.4766294637796,0.16740198839289228,40.2151142753089,1.5663008771099922,-0.0007794781323475694,1.5666336873366067,-0.00033281022661446613,6739023.882403419,3978638.401771276
6.399999999999993,0.18695293728851287,133.56481915130092,0.17455342149277564,40.881896875213315,1.5662224627637709,-0.0007841434622133942,1.5665266530731827,-0.000304190309411867,6735790.628253029,3975405.147620885
6.499999999999993,0.20513596072664592,137.7198222593799,0.18183023438133064,41.550031080789864,1.566143563768026,-0.0007889899574474398,1.5664201790778765,-0.00027661530985034766,6732556.346270607,3972170.8656384633
6.5999999999999925,0.22405950181337064,141.9417704054772,0.1892354108672471,42.219481460973086,1.5660641659334307,-0.0007939783459547595,1.5663141745492883,-0.00025000861585766643,6729321.109942482,3968935.6293103383
6.699999999999992,0.24373667296045992,146.2307921326279,0.19677171147089265,42.890217271506984,1.5659842585138626,-0.0007990741956802308,1.5662085596194881,-0.00022430110562554617,6726084.983477638,3965699.5028454945
6.799999999999992,0.2641808424443355,150.58701336734805,0.20444169483875554,43.5622123472014,1.5659038337701632,-0.0008042474369946456,1.5661032640946966,-0.0001994303245334006,6722848.022540138,3962462.5419079945
6.8999999999999915,0.2854056136691969,155.01055784292524,0.21224771224861444,44.23544475577191,1.565822886534901,-0.0008094723526201954,1.5659982268855188,-0.00017534035061772535,6719610.273760841,3959224.7931286977
6.999999999999991,0.3074248105297542,159.50154738087417,0.22019196860557264,44.90989537948935,1.5657414139067087,-0.0008147262819241853,1.565893393880844,-0.00015197997413518571,6716371.778643654,3955986.29801151
7.099999999999991,0.3302524644676726,164.06010222070037,0.22827653937918405,45.585548398261906,1.5656594149787642,-0.0008199892794455945,1.5657887171620715,-0.00012930218330731158,6713132.571856544,3952747.091224401
7.19999999999999,0.3539027915884095,168.68634149346698,0.236503271207369,46.262392727666104,1.565576890368663,-0.0008252461010097542,1.565684156909629,-0.00010726654096582244,6709892.6785459975,3949507.197913854
7.29999999999999,0.3783901878052319,173.38038326728815,0.24487396216822432,46.94041773821165,1.5654938421329325,-0.0008304823573065894,1.5655796765673196,-8.58344343870332e-05,6706652.123370216,3946266.6427380727
7.39999999999999,0.4037292251852845,178.1423446287057,0.2533903738005256,47.61961361417562,1.5654102736960773,-0.0008356843685517156,1.565475242412402,-6.496871632477585e-05,6703410.929278419,3943025.448646276
7.499999999999989,0.42993464446601304,182.97234181200065,0.26205419280728587,48.29997183294953,1.565326189712293,-0.000840839837843263,1.565370824220568,-4.463450827496551e-05,6700169.116290138,3939783.6356579945
7.599999999999989,0.4570208076456417,187.87050161212247,0.2708616317962865,48.98159800121806,1.565241584947245,-0.0008460476504803576,1.5652665180101628,-2.4933062917842364e-05,6696926.482745216,3936541.0021130727
7.699999999999989,0.4849979864323356,192.83703721285525,0.27977178786693896,49.665356007327745,1.5651563688109094,-0.0008521613633562726,1.5651632487068192,-6.879895909861489e-06,6693681.348223732,3933295.8675915883
7.799999999999988,0.5138769096144749,197.8721515695478,0.2887892318213925,50.35114356692563,1.565070457652461,-0.000859111584484302,1.5650608847621204,9.572890340647788e-06,6690433.918536232,3930048.4379040883
7.899999999999988,0.5436689454966058,202.97603823828473,0.2979203588213095,51.0388666873692,1.564983777777268,-0.0008667987519309722,1.5649592658521232,2.451192514474343e-05,6687184.383379982,3926798.9027478383
7.999999999999988,0.5743860639333359,208.1488823506026,0.3071711843673009,51.728441123178655,1.5648962644545754,-0.0008751332269244896,1.5648582477164674,3.801673810799322e-05,6683932.912188576,3923547.431556432
8.099999999999987,0.6060409611827055,213.39085754504444,0.3165489724936952,52.419751944418394,1.5648078643502232,-0.0008840010435227742,1.5647576655451854,5.0198805037871e-05,6680679.734454201,3920294.253822057
8.199999999999987,0.6386468859037087,218.70213014798378,0.32605924721003193,53.11272602939352,1.5647185317688275,-0.0008933258139569529,1.5646573997321662,6.113203666124889e-05,6677424.997393654,3917039.51676151
8.299999999999986,0.6722175555233747,224.0828612919327,0.33570669619666005,53.80731143948896,1.5646282267798646,-0.0009030498896289543,1.5645573542197058,7.087256015880783e-05,6674168.806963966,3913783.3263318227
8.399999999999986,0.7067671298504967,229.5332074687455,0.34549574327122035,54.50346176812811,1.5645369145614612,-0.0009131221840343824,1.5644574429048768,7.947165658439559e-05,6670911.258868263,3910525.7782361195
8.499999999999986,0.7423101927901281,235.05332109613394,0.3554306293963136,55.201136273884295,1.5644445649095782,-0.0009234965188298055,1.56435758763778,8.697727179818315e-05,6667652.436602638,3907266.9559704945
8.599999999999985,0.7788617341176044,240.6433509416014,0.3655154132747624,55.90029845467447,1.5643511517698583,-0.0009341313971991563,1.564257717621885,9.343414797324812e-05,6664392.415606544,3904006.934974401
8.699999999999985,0.8164371373136955,246.30344246336728,0.3757540319609111,56.60091521765877,1.5642566529030855,-0.000944988667728332,1.5641577678490775,9.888505400801328e-05,6661131.264727638,3900745.7840954945
8.799999999999985,0.8550526270395975,252.0337300573928,0.38615489725902047,57.30287594025519,1.564161058871947,-0.0009559403113852251,1.5640575890660866,0.00010346980586040111,6657869.202471779,3897483.721839635
8.899999999999984,0.8947247367637905,257.8343465763431,0.3967210972419305,58.00616518950292,1.5640643622360917,-0.0009669663585536081,1.5639571415038935,0.00010722073219815442,6654606.263995216,3894220.7833630727
8.999999999999984,0.9354703040488367,263.7054234106045,0.4074556728504615,58.71076834261427,1.5639665574200556,-0.0009780481603611352,1.5638563881271437,0.00011016929291196575,6651342.48030381,3890956.9996716664
9.099999999999984,0.9773064582182183,269.64709084619835,0.4183615416938159,59.41667435593831,1.5638676404398493,-0.0009891698020634164,1.5637552960972667,0.00011234434258255988,6648077.878008888,3887692.3973767445
9.199999999999983,1.020250759453122,275.65947466903424,0.4294430123490375,60.123838228358665,1.563767611823953,-0.0010002861589637419,1.5636538069189991,0.00011380490495382922,6644812.547442482,3884427.0668103383
