time[s],x[m],y[m],vx[m/s],vy[m/s],theta[rad],theta_dot[rad/s],gamma[rad],alpha[rad],mass[kg],mass_propellant[kg]
0.1,-0.00022183987605661743,0.06394300907858116,-0.002218398760566174,0.6394300907858116,1.5707921691882312,-4.1576066653359274e-05,1.5742656503255812,-0.0034734811373500207,6939072.482208467,4178687.0015763235
0.2,-0.0006723921910108135,0.19190558907391103,-0.0045055231495419595,1.2796257999532985,1.5707837140576626,-8.455130568504248e-05,1.5743172815389974,-0.0035335674813348206,6935794.6373083275,4175409.1566761835
0.30000000000000004,-0.001351155087674262,0.3839644583520274,-0.006787628966634486,1.9205886927811637,1.5707709466309918,-0.0001276742667068939,1.574330451895638,-0.003559505264646212,6932516.792445985,4172131.31181384
0.4,-0.0022568464803875807,0.6401964669861802,-0.009056913927133184,2.5623200863415274,1.5707538536317434,-0.00017092999248408177,1.5743309656783608,-0.003577112046617481,6929238.947617563,4168853.466985419
0.5,-0.003387459661553645,0.9606785967495947,-0.011306131811660645,3.204821297634145,1.570732422177881,-0.00021431453862512067,1.574324163094535,-0.0035917409166541514,6925961.102822096,4165575.6221899516
0.6,-0.00474027528112914,1.3454879612661057,-0.013528156195754952,3.848093645165111,1.5707066394993277,-0.00025782678553195877,1.5743118598644557,-0.0036052203651280035,6922683.258059363,4162297.7774272184
0.7,-0.006311860785437158,1.794701806198625,-0.015715855043080176,4.492138449325194,1.5706764928906218,-0.00030146608705824583,1.5742948367143637,-0.003618343823741821,6919405.413329268,4159019.9326971234
0.7999999999999999,-0.008098069074682503,2.3083975094298963,-0.01786208289245344,5.136957032312711,1.5706419696783025,-0.00034523212319338773,1.5742734847294695,-0.003631515051166989,6916127.568631803,4155742.0879996577
0.8999999999999999,-0.010094036441267086,2.8866525812351664,-0.01995967366584583,5.782550718052699,1.5706030572017422,-0.0003891247656022088,1.574248020583883,-0.003644963382140709,6912849.723967008,4152464.243334863
0.9999999999999999,-0.012294181336314693,3.5295446644407775,-0.02200144895047606,6.428920832056111,1.5705597427784348,-0.000433144233074291,1.5742185750435669,-0.0036588322651320837,6909571.87933502,4149186.3987028743
1.0999999999999999,-0.014692201575782968,4.237151534577608,-0.023980202394682765,7.076068701368303,1.5705120136982678,-0.0004772908016714532,1.57418522981508,-0.0036732161168122612,6906294.034735988,4145908.554103843
1.2,-0.017281070980322097,5.009551100025352,-0.025888694045391302,7.723995654477436,1.5704598572281512,-0.0005215647011653227,1.574148037264348,-0.003688180036196753,6903016.190170052,4142630.7095379075
1.3,-0.020053034671032192,5.84682140215025,-0.02771963690710097,8.372703021248988,1.5704032606415153,-0.0005659658663600691,1.5741070301078668,-0.0037037694663515364,6899738.345637271,4139352.8650051267
1.4000000000000001,-0.022999608243804228,6.74904061541701,-0.02946573572772036,9.022192132667591,1.5703422111752863,-0.0006104946622892235,1.5740622327446327,-0.0037200215693464767,6896460.501137821,4136075.0205056765
1.5000000000000002,-0.02611157287796536,7.716287047503852,-0.03111964634161132,9.672464320868423,1.570276696062495,-0.0006551511279120706,1.5740136598274763,-0.003736963764981338,6893182.656671789,4132797.176039644
1.6000000000000003,-0.029378975186920772,8.748639139388779,-0.03267402308955414,10.323520918849274,1.570206702476282,-0.0006999358621299722,1.573961323916083,-0.003754621439800987,6889904.812239415,4129519.3316072705
1.7000000000000004,-0.03279108230773524,9.846175465578657,-0.03412107120814465,10.97536326189879,1.5701322183078172,-0.000744841684647368,1.5739051953094438,-0.0037729770016265984,6886626.967838798,4126241.4872066537
1.8000000000000005,-0.0363363065510042,11.008974734419565,-0.03545224243268958,11.62799268840909,1.5700532335122275,-0.0007898479558986521,1.5738451877232804,-0.003791954211052939,6883349.123464302,4122963.642832158
1.9000000000000006,-0.040002281294400206,12.237115787875732,-0.036659747433960055,12.281410534561665,1.5699697386422062,-0.000834948700213478,1.5737812965140294,-0.00381155787182319,6880071.279114316,4119685.798482172
2.0000000000000004,-0.04377587656803422,13.530677601510543,-0.03773595273634018,12.935618136348111,1.5698817245080894,-0.0008801413411679221,1.5737135314690884,-0.0038318069609990513,6876793.43478816,4116407.9541560165
2.1000000000000005,-0.04764309190594085,14.889739284846673,-0.03867215337906623,13.590616833361294,1.5697891841230738,-0.0009254038501558656,1.5736418230279954,-0.0038526389049216014,6873515.590479751,4113130.109847608
2.2000000000000006,-0.05158900318368632,16.314380081515342,-0.039459112777454695,14.246407966686697,1.569692113647966,-0.0009707047510766488,1.5735660784379653,-0.00387396478999924,6870237.746180358,4109852.2655482157
2.3000000000000007,-0.05559784673660922,17.804679368966248,-0.040088435529229,14.902992874509042,1.5695905107911696,-0.0010160285679647843,1.5734862790196302,-0.0038957682284606054,6866959.90188568,4106574.421253537
2.400000000000001,-0.05965309934448828,19.360716658205106,-0.04055252607879062,15.56037289238857,1.5694843732924013,-0.0010613749876839332,1.5734024619144782,-0.003918088622076876,6863682.057595622,4103296.5769634782
2.500000000000001,-0.06373747782611278,20.982571593770516,-0.040843784816245,16.21854935565411,1.569373698902458,-0.0011067438994321417,1.5733146592040916,-0.0039409603016336,6860404.213310147,4100018.7326780027
2.600000000000001,-0.06783293656628464,22.670323953704408,-0.040954587401718624,16.87752359933891,1.5692584854013718,-0.001152135010861505,1.5732228976586298,-0.003964412257257965,6857126.369029167,4096740.8883970226
2.700000000000001,-0.07192066599149881,24.42405364950729,-0.04087729425214171,17.537296958028826,1.5691387305989282,-0.0011975480244356591,1.5731272002653953,-0.003988469666467154,6853848.524752593,4093463.0441204486
2.800000000000001,-0.07598105559158995,26.2438407261668,-0.04060389600091136,18.197870766595077,1.56901443299333,-0.001242976055982038,1.5730275674241103,-0.00401313443078033,6850570.680478504,4090185.1998463594
2.9000000000000012,-0.07999364928758176,28.129765362175306,-0.04012593695991819,18.859246360085056,1.568885592572967,-0.0012884042036301036,1.5729239768422598,-0.004038384269292816,6847292.83620275,4086907.355570605
3.0000000000000013,-0.08393722343220736,30.081907869248766,-0.0394357414462559,19.521425070734598,1.5687522093466848,-0.0013338322628218585,1.5728164502059143,-0.004064240859229518,6844014.991925267,4083629.511293122
3.1000000000000014,-0.08778978353519575,32.100348692235656,-0.03852560102988388,20.184408229868907,1.5686142833832464,-0.0013792596343847165,1.5727050057022738,-0.004090722319027407,6840737.147645882,4080351.6670137374
3.2000000000000015,-0.0915285656691542,34.185168409003545,-0.0373878213395845,20.848197167678897,1.568471814764088,-0.0014246861915849604,1.5725896608159893,-0.004117846051901353,6837459.303364554,4077073.82273241
3.3000000000000016,-0.09513003235701496,36.33644773032413,-0.036014666878607667,21.512793213205878,1.5683248036383692,-0.0014701112571875905,1.5724704298681944,-0.004145626229825172,6834181.459081089,4073795.9784489446
3.4000000000000017,-0.0985698059243918,38.55426749984421,-0.034397735673768276,22.178197695200733,1.5681732514364484,-0.0015155220192079174,1.5723472962904874,-0.00417404485403905,6830903.614791924,4070518.13415978
3.5000000000000018,-0.10182234184005783,40.838708694381936,-0.03252535915666025,22.844411945377242,1.5680171669000642,-0.0015608453638407136,1.5722201033077967,-0.004202936407732505,6827625.770476796,4067240.2898446517
3.600000000000002,-0.10486127794805386,43.18985242315095,-0.030389361079960302,23.5114372876902,1.5678565596152505,-0.0016060728481378142,1.5720888613084114,-0.004232301693160911,6824347.926133425,4063962.4455012805
3.700000000000002,-0.10765947578921421,45.6077799275235,-0.027981978411603582,24.17927504372552,1.567691439254482,-0.0016512036076837251,1.5719535974686096,-0.004262158214127565,6821070.081761637,4060684.6011294927
3.800000000000002,-0.11018902363421264,48.09257258084331,-0.02529547844998429,24.847926533198066,1.5675218155283774,-0.0016962372610456592,1.5718143380836007,-0.004292522555223277,6817792.237361393,4057406.7567292484
3.900000000000002,-0.11242123561984327,50.64431188823169,-0.02232211985630632,25.517393073883806,1.5673476982096277,-0.0017411731874974268,1.5716711071495255,-0.004323408939897799,6814514.392932588,4054128.9123004437
4.000000000000002,-0.1143266519612731,53.263079486380846,-0.019054163414298397,26.187675981491523,1.5671690971371832,-0.0017860107244459264,1.571523927062493,-0.004354829925309778,6811236.548475108,4050851.067842964
4.100000000000001,-0.11587503993409148,55.94895714333536,-0.015483879728183767,26.85877656954514,1.5669860222064034,-0.0018307493077982,1.5713728190998522,-0.0043867968934487855,6807958.703988867,4047573.223356723
4.200000000000001,-0.11703539435949849,58.70202675826293,-0.011603544254070097,27.53069614927566,1.5667984833685622,-0.0018753883784118901,1.5712178033715898,-0.0044193200030275825,6804680.85947378,4044295.3788416362
4.300000000000001,-0.11777593697162358,61.52237036121383,-0.0074054261212509786,28.203436029509025,1.5666064906511565,-0.001919927174057754,1.5710588985589653,-0.004452407907808764,6801403.01492971,4041017.5342975664
4.4,-0.11806405176389263,64.41007011285484,-0.0028811479226904906,28.876997516410132,1.5664100553600688,-0.0019643529108761652,1.570896099907094,-0.00448604454702517,6798125.1703532655,4037739.689721122
4.5,-0.11786625927185002,67.36520830415871,0.001977924920426117,29.55138191303876,1.5662091905655036,-0.0020086479456520832,1.570729395071592,-0.0045202045060883655,6794847.325739773,4034461.84510763
4.6,-0.11714825572631533,70.3878673561023,0.007180035455346832,30.226590519435927,1.566003910396138,-0.002052801693654957,1.5705587864307036,-0.004554876034565503,6791569.481086504,4031184.0004543606
4.699999999999999,-0.11587495525295148,73.4781298193862,0.012733004733638593,30.902624632838926,1.565794229281359,-0.0020968111477920187,1.5703842904658034,-0.004590061184444494,6788291.636392789,4027906.1557606454
4.799999999999999,-0.11401047030481007,76.63607837411051,0.018644849481414053,31.579485547243156,1.5655801623339431,-0.002140669474157704,1.5702059166918856,-0.004625754357942435,6785013.791656946,4024628.3110248023
4.899999999999999,-0.11151800851014962,79.86179582931359,0.02492461794660444,32.257174552030754,1.5653617272742957,-0.0021843505964741104,1.570023642474822,-0.004661915200526279,6781735.946872197,4021350.4662400535
4.999999999999998,-0.10836001209486316,83.15536512278433,0.03157996415286454,32.93569293470732,1.5651389418922528,-0.002227853820428183,1.5698374899932055,-0.004698548100952715,6778458.102038571,4018072.621406427
5.099999999999998,-0.10449814034947488,86.51686932070496,0.03861871745388281,33.61504197920622,1.564911824402497,-0.0022711748975563152,1.5696474750252831,-0.004735650622786025,6775180.25715516,4014794.776523017
5.1999999999999975,-0.09989325498816426,89.94639161727301,0.04604885361310622,34.29522296568053,1.5646803937475802,-0.002314306549170062,1.5694536084231434,-0.004773214675563242,6771902.412220281,4011516.9315881375
5.299999999999997,-0.09450545873594644,93.44401533442006,0.05387796252217816,34.976237171470515,1.564444668923494,-0.0023572482408597177,1.5692559118084946,-0.004811242885000455,6768624.567234034,4008239.08660189
5.399999999999997,-0.08829409606088955,97.00982392145954,0.06211362675056902,35.658085870394906,1.5642046690026281,-0.002399999208660533,1.569054405925875,-0.004849736923246972,6765346.722196462,4004961.2415643185
5.4999999999999964,-0.08121775658321617,100.64390095473215,0.0707633947767338,36.34077033272606,1.5639604131077625,-0.0024425589486568853,1.5688491114581768,-0.004888698350414389,6762068.877107679,4001683.3964755363
5.599999999999996,-0.07323409317021994,104.34633013667836,0.07983663412996235,37.02429181946218,1.5637119237920416,-0.0024848931572085077,1.5686399989769575,-0.004928075184915892,6758791.031959108,3998405.5513269654
5.699999999999996,-0.0642999496346299,108.11719529574879,0.08934143535590039,37.70865159070418,1.5634592247367578,-0.002526990552837131,1.5684270755907626,-0.004967850854004752,6755513.186748202,3995127.70611606
5.799999999999995,-0.05437142107427822,111.95658038618873,0.0992852856035168,38.393850904399535,1.5632023396929966,-0.002568850437611891,1.5682103641485077,-0.005008024455511073,6752235.341475154,3991849.860843012
5.899999999999995,-0.04340384068543065,115.86456948758924,0.1096758038884757,39.079891014005064,1.5629412927749178,-0.002610469180787185,1.56798988304333,-0.005048590268412312,6748957.49613942,3988572.0155072776
5.999999999999995,-0.03135173493145301,119.84124680428243,0.12052105753977635,39.76677316693198,1.5626761093345498,-0.0026518344036794736,1.5677656386363306,-0.005089529301780749,6745679.650738276,3985294.1701061334
6.099999999999994,-0.018168865123494683,123.88669666506377,0.13182869807958328,40.454498607813356,1.562406815253961,-0.002692940805887387,1.5675376476371579,-0.005130832383196893,6742401.805270823,3982016.32463868
6.199999999999994,-0.003808239667368799,128.0010035228096,0.14360625456125883,41.14306857745834,1.5621334367781048,-0.0027337847585615243,1.5673059291083127,-0.0051724923302078896,6739123.959736601,3978738.4791044584
6.299999999999994,0.01177786698960046,132.18425195413215,0.1558610665696926,41.83248431322541,1.5618560002262907,-0.002774365518141123,1.5670705058707957,-0.005214505644504985,6735846.114135879,3975460.6335037365
6.399999999999993,0.02863795715172756,136.43652665871593,0.168600901621271,42.522747045837825,1.5615745328358124,-0.0028146739047828304,1.566831389677145,-0.005256856841332702,6732568.268466868,3972182.7878347253
6.499999999999993,0.04682132913301612,140.7579124587295,0.18183371981288562,43.21385800013555,1.5612890631761474,-0.0028546965966502994,1.5665885875394747,-0.005299524363327368,6729290.422726823,3968904.94209468
6.5999999999999925,0.0663780565220855,145.14849429844367,0.19556727389069375,43.90581839714178,1.5609996208343877,-0.0028944234175956886,1.5663421112108462,-0.0053424903764585085,6726012.576913826,3965627.096281683
6.699999999999992,0.08735900422936045,149.60835724363346,0.2098094770727494,44.598629451898,1.5607062367776845,-0.0029338405670312267,1.5660919685694226,-0.005385731791738069,6722734.731025153,3962349.2503930097
6.799999999999992,0.1098157527676039,154.13758648155735,0.22456748538243443,45.29229237923887,1.5604089420402762,-0.0029729473740822956,1.5658381841752886,-0.005429242135012391,6719456.885061264,3959071.4044291214
6.8999999999999915,0.13380059677334027,158.73626732050388,0.2398484400573636,45.98680838946527,1.560107767770796,-0.0030117426948019746,1.5655807818663667,-0.005473014095570772,6716179.039022515,3955793.5583903724
6.999999999999991,0.15936659066620973,163.40448518898933,0.2556599389286946,46.682178684854435,1.5598027461419637,-0.003050216288323723,1.565319774711096,-0.005517028569132387,6712901.192907149,3952515.712275007
7.099999999999991,0.18656750473505973,168.1423256355707,0.27200914068850013,47.37840446581378,1.5594939096249043,-0.003088365170592882,1.5650551847026204,-0.005561275077716088,6709623.346715146,3949237.866083003
7.19999999999999,0.21545785101735823,172.94987432815137,0.28890346282298507,48.07548692580656,1.559181291540892,-0.0031261808401231036,1.5647870275929083,-0.005605736052016308,6706345.50044524,3945960.0198130975
7.29999999999999,0.24609283647580296,177.82721705384725,0.30634985458444736,48.77342725695891,1.5588649252870461,-0.0031636625384580223,1.5645153282428976,-0.005650402955851508,6703067.654097974,3942682.173465832
7.39999999999999,0.2785283777874593,182.77443971837363,0.3243554131165633,49.472226645263746,1.5585448446885546,-0.0032008059849157364,1.5642401075233565,-0.0056952628348019285,6699789.807673105,3939404.3270409624
7.499999999999989,0.31282123394264694,187.79162834434746,0.34292856155187645,50.171886259738265,1.5582210865022648,-0.003237581862897706,1.5639613591082753,-0.00574027260601051,6696511.961164854,3936126.480532711
7.599999999999989,0.349028844655376,192.87886907215326,0.36207610712729027,50.87240727805816,1.557893687557895,-0.0032739894436978056,1.5636791091743834,-0.005785421616488318,6693234.114573923,3932848.6339417803
7.699999999999989,0.387209327067873,198.03624815948123,0.3818048241249701,51.573790873279634,1.5575626847910373,-0.0033100276685775545,1.5633933834998834,-0.005830698708846116,6689956.267900948,3929570.787268806
7.799999999999988,0.4274216070370478,203.26385197950853,0.40212279969174825,52.2760382002729,1.557228117730524,-0.003345670605132357,1.56310418174291,-0.005876064012386051,6686678.421141222,3926292.94050908
7.899999999999988,0.4697252978307065,208.5617670215294,0.42303690793658677,52.9791504202087,1.5568900263864156,-0.0033809134410837027,1.5628115268496832,-0.005921500463267559,6683400.574294715,3923015.0936625726
7.999999999999988,0.5141806718199722,213.9300798907402,0.44455373989265645,53.68312869210808,1.556548450837119,-0.0034157554929658985,1.5625154462050732,-0.005966995367954198,6680122.727362298,3919737.246730156
8.099999999999987,0.5608486579624612,219.36887730776866,0.46667986142489043,54.387974170284664,1.556203431287261,-0.003450195498579534,1.5622159666001547,-0.0060125353128936965,6676844.880344729,3916459.399712586
8.199999999999987,0.609790834403722,224.8782461082566,0.4894217644126073,55.09368800487941,1.555855008037188,-0.0034842325007300133,1.5619131151529146,-0.00605810711572663,6673567.033242834,3913181.5526106902
8.299999999999986,0.661069422513841,230.45827324242964,0.5127858811011908,55.80027134173047,1.555503221479131,-0.003517865580571769,1.5616069190270572,-0.006103697547926279,6670289.186057455,3909903.7054253113
8.399999999999986,0.7147472804364854,236.10904577467534,0.536778579226443,56.507725322456864,1.555148112084995,-0.003551093941357494,1.561297405512109,-0.0061492934271139,6667011.338789465,3906625.8581573213
8.499999999999986,0.770887899532467,241.83065088308763,0.561406190959816,57.21605108412298,1.5547897204472683,-0.0035839163772684954,1.56098460150643,-0.006194881059161661,6663733.491439661,3903348.0108075175
8.599999999999985,0.8295553973121623,247.62317585905691,0.5866749777969539,57.925249759692925,1.554428087256613,-0.0036163319065530826,1.560668534144041,-0.006240446887427975,6660455.644008893,3900070.1633767486
8.699999999999985,0.8908145115613915,253.48670810684854,0.6125911424922915,58.63532247791612,1.5540632533016978,-0.0036483395491521595,1.560349230573612,-0.006285977271914156,6657177.7964980155,3896792.3158658715
8.799999999999985,0.9547305946406788,259.42133514318203,0.6391608307928737,59.3462703633351,1.5536952594726938,-0.003679938290039778,1.5600267179251623,-0.006331458452468519,6653899.948907886,3893514.4682757417
8.899999999999984,1.0213696090102837,265.4271445967962,0.6663901436960494,60.058094536141624,1.5533241467875565,-0.0037111268513724525,1.5597010231038786,-0.006376876316322111,6650622.101239318,3890236.6206071735
8.999999999999984,1.0907981181371775,271.50422420808354,0.6942850912689376,60.770796112873064,1.5529499563350389,-0.0037419045251773204,1.5593721735600872,-0.006422217225048321,6647344.25349324,3886958.772861095
9.099999999999984,1.163083283260329,277.6526618286448,0.7228516512315157,61.48437620561252,1.5525727293245426,-0.003772270104962144,1.5590401963016778,-0.006467466977135183,6644066.405670494,3883680.925038349
9.199999999999983,1.2382928561867195,283.87254542090557,0.7520957292639048,62.19883592260787,1.5521925070644802,-0.003802222600623268,1.5587051185545484,-0.00651261149006821,6640788.557771969,3880403.077139824
9.299999999999983,1.3164951746421583,290.1639630576983,0.7820231845543886,62.91417636792754,1.5518093309875265,-0.003831760769537342,1.5583669673410578,-0.006557636353531349,6637510.709798517,3877125.229166372
