time[s],x[m],y[m],vx[m/s],vy[m/s],theta[rad],theta_dot[rad/s],gamma[rad],alpha[rad],mass[kg],mass_propellant[kg]
0.1,-0.0005484912991111913,1.5639423568755286,-0.005484912991111913,0.6394235687552854,1.5707860472584958,-0.00010279536400756677,1.5793740188564276,-0.008587971597931787,6939072.509112404,4178687.02848026
0.2,-0.001777732776085943,1.691902272466349,-0.012292414769747517,1.2795991559082052,1.5707629827382854,-0.00023064520210376352,1.5804024886954913,-0.009639505957205863,6935794.708575294,4175409.227943151
0.30000000000000004,-0.0036842267496192613,1.8839564690162,-0.019064939735333183,1.920541965498511,1.5707271331801609,-0.00035849558124610026,1.5807228547644327,-0.009995721584271866,6932516.908038185,4172131.4274060414
0.4,-0.006263627781766837,2.140181795403288,-0.025794010321475755,2.5622532638708755,1.5706784755035805,-0.0004865767658026852,1.5808629113089825,-0.010184435805401959,6929239.107989357,4168853.6273572133
0.5,-0.009511127475382204,2.460655238821629,-0.032474996936153674,3.204734434183412,1.5706169562991719,-0.000615192044085933,1.5809294239635623,-0.010312467664390423,6925961.30842881,4165575.8277966664
0.6,-0.013417989541732546,2.8454539364854794,-0.03906862066350343,3.847986976638502,1.5705425564669797,-0.0007439983219211827,1.5809489802578363,-0.010406423790856545,6922683.508868263,4162298.0282361195
0.7,-0.01796898027829522,3.294655187382839,-0.04550990736562672,4.492012508973598,1.5704553391194616,-0.0008721734751807993,1.580927275957911,-0.01047193683844938,6919405.708819435,4159020.2281872914
0.7999999999999999,-0.023145393106848856,3.808336475642264,-0.051764128285536365,5.136812882594248,1.570355393085777,-0.0009994603368461326,1.5808730762110006,-0.01051768312522361,6916127.908038185,4155742.4274060414
0.8999999999999999,-0.028920668222866777,4.3865754707942495,-0.05775275116017921,5.782389951519852,1.570242914961186,-0.0011247812459092292,1.5807836903940427,-0.010540775432856586,6912850.106036232,4152464.6254040883
0.9999999999999999,-0.03525428142310254,5.0294501091018855,-0.06333613200235758,6.4287463830763585,1.570118323702284,-0.0012459125890216178,1.5806480271365513,-0.01052970343426729,6909572.30061631,4149186.8199841664
1.0999999999999999,-0.04208478269578021,5.737038640456412,-0.06830501272677678,7.075885313545266,1.569982391616397,-0.0013593208588684217,1.5804492377965715,-0.01046684618017446,6906294.489581154,4145909.00894901
1.2,-0.049338186073144476,6.509419478597736,-0.0725340337736426,7.7238083814132334,1.56983608965099,-0.001463019654070687,1.5801870182827427,-0.010350928631752687,6903016.671954201,4142631.191322057
1.3,-0.05693630792004167,7.34667113212165,-0.07598121846897196,8.37251653523914,1.569680434475418,-0.0015565517557188419,1.5798711530303178,-0.010190718554899725,6899738.8484678725,4139353.367835729
1.4000000000000001,-0.06481585050038151,8.248872088862992,-0.0787954258033983,9.022009567413425,1.569516135463344,-0.0016429901207408804,1.5795297937538482,-0.010013658290504157,6896461.020587013,4136075.5399548695
1.5000000000000002,-0.07291710385424124,9.21610087372863,-0.08101253353859739,9.672287848656381,1.5693438078311874,-0.0017232763215664542,1.579171867356023,-0.009828059524835675,6893183.189776466,4132797.7091443227
1.6000000000000003,-0.08117920560797323,10.247781280130031,-0.08262101753731992,10.316804064014004,1.569164080672394,-0.0017972715879336167,1.5788045482180069,-0.009640467545612763,6889918.510333107,4129533.0297009633
1.7000000000000004,-0.0895351309058746,11.342961549787148,-0.08355925297901365,10.951802696571166,1.5689776902631554,-0.0018639040923882407,1.5784259046778206,-0.009448214414665257,6886674.506426857,4126289.0257947133
1.8000000000000005,-0.09791476569816729,12.500606304533605,-0.08379634792292681,11.576447547464563,1.568785419166585,-0.0019227109657028597,1.5780347204462644,-0.009249301279679267,6883452.8289366225,4123067.348304479
1.9000000000000006,-0.1062507904714827,13.719756795925374,-0.0833602477331541,12.191504913917694,1.568587984195146,-0.001974349714391376,1.5776337885572154,-0.009045804362069365,6880251.910723732,4119866.4300915883
2.0000000000000004,-0.11447895315055431,14.99954150000327,-0.08228162679071618,12.797847040778958,1.5683860325789687,-0.0020195161617724135,1.5772255717152739,-0.008839539136305197,6877069.976153419,4116684.495521276
2.1000000000000005,-0.12253767293040611,16.339166167267027,-0.080587197798518,13.396246672637584,1.5681801510530757,-0.002058815258929133,1.5768119091956678,-0.008631758142592094,6873905.451495216,4113519.9708630727
2.2000000000000006,-0.13036875765163,17.737883189561167,-0.0783108472122389,13.98717022294139,1.5679708551138636,-0.002092959392121484,1.576395031016819,-0.008424175902955522,6870757.380450294,4110371.899818151
2.3000000000000007,-0.13791890945000257,19.195018914684745,-0.07550151798372555,14.57135725123579,1.5677585607863198,-0.002122943275436634,1.5759777825100714,-0.008219221723751557,6867624.261309669,4107238.780677526
2.400000000000001,-0.14513962115618056,20.71006445007651,-0.0722071170617801,15.150455353917643,1.567543581998346,-0.0021497878797374034,1.5755622938011293,-0.00801871180278324,6864502.779131935,4104117.2984997914
2.500000000000001,-0.15198552065710502,22.282591520638295,-0.06845899500924445,15.725270705617866,1.5673261655825321,-0.00217416415813869,1.5751497375442407,-0.007823571961708575,6861391.306231544,4101005.825599401
2.600000000000001,-0.15840995767589997,23.9120966143228,-0.06424437018794936,16.295050936845055,1.5671065831964504,-0.0021958238608178397,1.5747388758284453,-0.007632292631994941,6858291.33577256,4097905.8551404164
2.700000000000001,-0.16436669046942803,25.59805220835163,-0.059567327935280814,16.8595559402883,1.5668850982197207,-0.0022148497672959443,1.5743294613736245,-0.0074443631539038435,6855203.333331154,4094817.85269901
2.800000000000001,-0.16981070104369012,27.33997377298668,-0.05444010574262092,17.419215646350516,1.5666619468729026,-0.002231513468179989,1.573921606922435,-0.00725966004953249,6852126.426348732,4091740.9457165883
2.9000000000000012,-0.17470068493437083,29.13758009400513,-0.048899838906806985,17.976063210184485,1.56643727992908,-0.002246669438225237,1.573516595282922,-0.007079315353841986,6849056.54280381,4088671.0621716664
3.0000000000000013,-0.17899600527347678,30.990603621617353,-0.04295320339105961,18.530235276122216,1.5662112325819513,-0.0022604734712881828,1.5731143290123466,-0.006903096430395328,6845993.401446388,4085607.9208142445
3.1000000000000014,-0.18265646381809783,32.89879235402679,-0.03660458544621041,19.081887324094343,1.5659839287829798,-0.0022730379897158356,1.5727146140127695,-0.006730685229789701,6842936.685381935,4082551.2047497914
3.2000000000000015,-0.18564200314614834,34.861907212344825,-0.02985539328050512,19.631148583180376,1.5657554871843693,-0.002284415986104246,1.5723171430699436,-0.006561655885574336,6839886.130450294,4079500.649818151
3.3000000000000016,-0.1879126580010676,36.87973419339633,-0.02270654854919249,20.178269810515065,1.5655260211009836,-0.0022946608338564986,1.5719216234223101,-0.006395602321326521,6836841.23030381,4076455.7496716664
3.4000000000000017,-0.18942989494970994,38.95208931803381,-0.015172369486423351,20.72355124637485,1.5652956132253018,-0.0023040787568179844,1.5715284583970126,-0.006232845171710855,6833801.381182716,4073415.9005505727
3.5000000000000018,-0.1901562071096396,41.078817444251,-0.007263121599296618,21.26728126217185,1.5650643231472021,-0.002312900780995898,1.5711378430059904,-0.006073519858788234,6830766.003985451,4070380.523353307
3.600000000000002,-0.1900540711778666,43.259769071132624,0.0010213593177299772,21.8095162688162,1.5648322089579023,-0.0023211418929990615,1.5707494958929915,-0.005917286935089194,6827734.982745216,4067349.5021130727
3.700000000000002,-0.1890858572590961,45.494814034659086,0.0096821391877049,22.350449635264596,1.5645993275075718,-0.0023288145033050997,1.5703631302042214,-0.005763802696649556,6824707.9285459975,4064322.447913854
3.800000000000002,-0.18721385209919872,47.78382751102656,0.018720051598973768,22.890134763674716,1.5643657354979759,-0.0023359200959588234,1.5699785051604362,-0.005612769662460382,6821684.732012794,4061299.251380651
3.900000000000002,-0.18440032691728034,50.12668866608701,0.028135251819183763,23.428611550604558,1.5641314884832203,-0.0023424701475569065,1.5695954345340215,-0.005463946050801249,6818665.310137794,4058279.829505651
4.000000000000002,-0.18060754183890154,52.523280299046085,0.037927850783787895,23.965916329590723,1.5638966409425579,-0.0023484754066232794,1.569213753502131,-0.005317112559573234,6815649.587969826,4055264.107337682
4.100000000000001,-0.17579783543475824,54.973500199549804,0.04809706404143299,24.50219900503716,1.5636612432889447,-0.00235397653613172,1.5688333600319933,-0.005172116743048516,6812637.264971779,4052251.784339635
4.200000000000001,-0.1699335710811584,57.47725412872527,0.05864264353599844,25.037539291754673,1.5634253437367607,-0.0023589955218405873,1.5684541423007206,-0.00502879856395988,6809628.180010841,4049242.6993786977
4.300000000000001,-0.16297709957833809,60.03445034716492,0.069564715028203,25.571962184396476,1.5631889897747864,-0.002363539619743716,1.5680759824221344,-0.004886992647348043,6806622.280840919,4046236.800208776
4.4,-0.15489087037752938,62.64500013672384,0.08086229200808702,26.105497895589203,1.5629522261467628,-0.0023676362802354223,1.567698817078037,-0.004746590931274275,6803619.505694435,4043234.0250622914
4.5,-0.14563752536374908,65.3088174415494,0.0925334501378032,26.638173048255588,1.5627150932494611,-0.002371328973016016,1.5673226246839584,-0.004607531434497325,6800619.799395607,4040234.3187634633
4.6,-0.13517971479564675,68.02581709667871,0.10457810568102327,27.16999655129321,1.5624776308923098,-0.002374623571512363,1.566947316764815,-0.004469685872505069,6797623.141924904,4037237.66129276
4.699999999999999,-0.12348008550435217,70.79591541826818,0.1169962929129457,27.700983215894787,1.562239878518387,-0.0023775237392269473,1.566572808938642,-0.0043329304202548435,6794629.501788185,4034244.0211560414
4.799999999999999,-0.11050128498215335,73.61903011222178,0.1297880052219882,28.231146939536032,1.5620018752377802,-0.0023800328060688387,1.5661990254123355,-0.004197150174555242,6791638.849200294,4031253.368568151
4.899999999999999,-0.09620596556997094,76.49508011194027,0.14295319412182406,28.76049999718491,1.561763659867058,-0.0023821537072236847,1.5658258980156128,-0.004062238148554886,6788651.158038185,4028265.6774060414
4.999999999999998,-0.08055679049350549,79.42398542748343,0.1564917507646544,29.28905315543164,1.561525270940178,-0.002383889268799489,1.5654533660376457,-0.003928095097467832,6785666.404620216,4025280.9239880727
5.099999999999998,-0.0635163337117153,82.40564866164793,0.1704045678179019,29.81663234164499,1.5612867518003364,-0.0023851913984158464,1.5650813047011973,-0.003794552900860948,6782684.931231544,4022299.450599401
5.1999999999999975,-0.04504706047795836,85.43994721869373,0.18469273233756944,30.342985570457998,1.56104815266952,-0.002385991308165721,1.564709567433937,-0.00366141476441717,6779707.232501076,4019321.751868932
5.299999999999997,-0.025111485828183126,88.526759102279,0.19935574649775234,30.868118835852684,1.5608095235724253,-0.0023862909709463677,1.5643381109270311,-0.0035285873546058166,6776733.294268654,4016347.81363651
5.399999999999997,-0.003672181623937624,91.66596269253398,0.21439304204245502,31.392035902549765,1.5605709143705182,-0.002386092019071569,1.5639668968872305,-0.003395982516712248,6773763.10530381,4013377.6246716664
5.4999999999999964,0.019308216392193798,94.85743672345184,0.2298039801613142,31.91474030917856,1.560332374773709,-0.002385395968092418,1.5635958919353647,-0.003263517161655738,6770796.65608506,4010411.1754529164
5.599999999999996,0.043866373833232664,98.10107617560989,0.24558157441038864,32.43639452158048,1.5600939397339941,-0.0023843503971484577,1.5632252978402283,-0.0031313581062342166,6767833.622393654,4007448.14176151
5.699999999999996,0.07003845374524217,101.39678020054227,0.26172079912009505,32.95704024932382,1.5598556353282207,-0.0023830440577351747,1.5628552223860517,-0.002999587057830988,6764873.920001076,4004488.439368932
5.799999999999995,0.09786022640993192,104.74445036621118,0.27821772664689737,33.47670165668921,1.5596174811536399,-0.002381541745807342,1.5624857314339062,-0.0028682502802663823,6761917.498370216,4001532.0177380727
5.899999999999995,0.12736736234432394,108.14398694654716,0.2950713593439201,33.99536580335979,1.5593794965057532,-0.0023798464788657298,1.5621167923152022,-0.0027372958094489253,6758964.380694435,3998578.9000622914
5.999999999999995,0.1585949194591494,111.59527929666328,0.3122755711482547,34.51292350116113,1.5591416930369286,-0.002378034688246905,1.5617484972247166,-0.0026068041877880255,6756014.779131935,3995629.2984997914
6.099999999999994,0.1915783482900513,115.09825118624167,0.3298342883090189,35.029718895783866,1.5589040837057755,-0.0023760933115308334,1.561380763332406,-0.0024766796266304514,6753068.013995216,3992682.5333630727
6.199999999999994,0.22635316445123493,118.65283126727381,0.3477481616118364,35.54580081032143,1.5586666827857336,-0.002374009200418777,1.5610135378267376,-0.002346855041003959,6750123.987383888,3989738.5067517445
6.299999999999994,0.2629548481481588,122.25895160129691,0.3660168369692387,36.06120334023097,1.5584295043219025,-0.002371784638311278,1.5606467966954618,-0.0022172923735592764,6747182.629962013,3986797.1493298695
6.399999999999993,0.3014189133949588,125.91655518272401,0.38464065246800005,36.576035814270995,1.5581925616980055,-0.0023694262389708136,1.5602805214138866,-0.0020879597158811602,6744243.725665138,3983858.2450329945
6.499999999999993,0.3417808028017806,129.6255841197678,0.40361889406821766,37.090289370438086,1.557955868321259,-0.0023669337674629134,1.5599146925461425,-0.00195882422488336,6741307.290362404,3980921.80973026
6.5999999999999925,0.38407584868445177,133.38597953810716,0.42295045882671156,37.60395418339356,1.5577194369872378,-0.0023643133402123364,1.55954930147341,-0.0018298644861722835,6738373.341631935,3977987.8609997914
6.699999999999992,0.42833902021894027,137.19768187613428,0.44263171534488477,38.11702338027106,1.5574832752137426,-0.0023616177349519247,1.5591844069337986,-0.0017011317200559262,6735441.891680763,3975056.4110486195
6.799999999999992,0.4746052573497962,141.0606333900257,0.46266237130855903,38.62951513891437,1.557247390788604,-0.002358844251385907,1.558819985670195,-0.0015725948815910051,6732512.903399513,3972127.4227673695
6.8999999999999915,0.5229099081538069,144.9748009122918,0.48304650804010657,39.141675222660915,1.5570117941279908,-0.00235596660613158,1.5584559763904058,-0.0014441822624149392,6729585.893145607,3969200.4125134633
6.999999999999991,0.5732882344663194,148.94014888550038,0.5037832631251247,39.65347973208552,1.556776495734138,-0.0023529839385293405,1.5580923682953522,-0.0013158725612143485,6726660.9070616225,3966275.426429479
7.099999999999991,0.6257754102367057,152.95663954850667,0.524871757703863,40.16490663006301,1.5565415061878838,-0.0023498954625418666,1.5577291513111131,-0.0011876451232293306,6723737.98811631,3963352.5074841664
7.19999999999999,0.6804069257194917,157.02425025640954,0.5463151548278602,40.67610707902883,1.556306839068077,-0.0023466711980686472,1.5573662729367759,-0.0010594338686988891,6720816.8387022475,3960431.358070104
7.29999999999999,0.7372190704063585,161.14299276646213,0.5681214468686682,41.187425100525914,1.5560725145167638,-0.0023432455131322883,1.5570036359707273,-0.0009311214539635682,6717896.78499131,3957511.3043591664
7.39999999999999,0.796248094525953,165.31287864414156,0.5902902411959452,41.698858776794225,1.5558385528306813,-0.002339616860824709,1.5566412435813313,-0.0008026907506499814,6714977.831133888,3954592.3505017445
7.499999999999989,0.8575302069261532,169.53391937007066,0.6128211240020024,42.210407259291095,1.5556049744567424,-0.0023357837393887747,1.5562790995866325,-0.0006741251298900686,6712059.9793272475,3951674.498695104
7.599999999999989,0.9211015707185621,173.80612619687358,0.635713637924089,42.72206826802912,1.5553717999975702,-0.0023317445917211146,1.555917208113577,-0.0005454081160067847,6709143.233965919,3948757.753333776
7.699999999999989,0.986998301336821,178.1295102561392,0.6589673061825885,43.23384059265628,1.5551390502049345,-0.002327497926357795,1.5555555738431102,-0.00041652363817568094,6706227.597735451,3945842.117103307
7.799999999999988,1.055256468320058,182.50408278490121,0.6825816698323702,43.74572528762,1.5549067460139592,-0.0023230419097530534,1.5551942015967546,-0.00028745558279541505,6703313.069415138,3942927.5887829945
7.899999999999988,1.1259121649777808,186.9298623461553,0.7065569665772284,44.257795612540626,1.5546749077718849,-0.002318382420742578,1.5548331063092728,-0.00015819853738796574,6700399.506182716,3940014.0255505727
7.999999999999988,1.1990014685320998,191.40687104481665,0.7308930355431896,44.77008698661375,1.5544435555898255,-0.0023135218205947165,1.5544722996981422,-2.8744108316658412e-05,6697486.839434669,3937101.358802526
8.099999999999987,1.2745603992334031,195.93513075934285,0.7555893070130328,45.2825971452621,1.554212709722407,-0.002308458674184275,1.5541117892185556,0.00010092050385135387,6694575.074297951,3934189.593665807
8.199999999999987,1.3526249197102813,200.51466318916388,0.7806452047687816,45.79532429821027,1.5539823906089616,-0.0023031911344541176,1.5537515822337093,0.00023080837525224496,6691664.215167091,3931278.7345349477
8.299999999999986,1.4332315350660387,205.1455122344741,0.8060661535575753,46.308490453102145,1.5537526230164378,-0.002297675925238148,1.553391640267548,0.0003609827488897377,6688753.829669044,3928368.349036901
8.399999999999986,1.5164168007462837,209.827725424488,0.8318526568024499,46.82213190013907,1.5535234326119043,-0.002291904045335735,1.5530319679767903,0.0004914646351139584,6685843.8484678725,3925458.367835729
8.499999999999986,1.602217227834904,214.56135058536017,0.8580042708862031,47.33625160872194,1.5532948453183033,-0.002285872936008831,1.552672578151742,0.0006222671665612189,6682934.267413185,3922548.7867810414
8.599999999999985,1.6906692781290844,219.3464358167658,0.8845205029418046,47.850852314056276,1.5530668873022457,-0.0022795801605752916,1.5523134840467891,0.0007534032554565862,6680025.082110451,3919639.601478307
8.699999999999985,1.7818100362244664,224.18306048629407,0.9114075809538196,48.366246695282896,1.5528395872601528,-0.0022730004209290436,1.551954680224247,0.0008849070359058242,6677115.685626076,3916730.204993932
8.799999999999985,1.8756770475120677,229.07132704075184,0.9386701128760125,48.88266554457758,1.5526129758523302,-0.0022661140782267615,1.5515961716082447,0.0010168042440854563,6674205.631426857,3913820.1507947133
8.899999999999984,1.9723078411963726,234.0113389792865,0.9663079368430488,49.40011938534656,1.5523870841097713,-0.0022589174255875475,1.5512379789178357,0.0011491051919356732,6671294.90217881,3910909.4215466664
8.999999999999984,2.0717399272957633,239.00320084323903,0.9943208609939069,49.918618639525164,1.5521619434392506,-0.002251406705207721,1.5508801228392166,0.0012818206000340115,6668383.480792091,3907998.0001599477
9.099999999999984,2.1740100250860106,244.04699054110074,1.0227009779024714,50.437896978617246,1.5519375810783202,-0.002243623609304517,1.5505226651634016,0.001414915914918602,6665471.886797951,3905086.406165807
9.199999999999983,2.2791546719023867,249.14278192615484,1.0514464681637619,50.957913850540926,1.551714023795515,-0.0022355728280536503,1.5501656296118638,0.0015483941836511583,6662560.200762794,3902174.720130651
9.299999999999983,2.387210342569565,254.290649364238,1.0805567066717832,51.4786743808316,1.551491298629126,-0.002227251663889366,1.549809033214911,0.0016822654142150117,6659648.4148741225,3899262.934241979
