time[s],x[m],y[m],vx[m/s],vy[m/s],theta[rad],theta_dot[rad/s],gamma[rad],alpha[rad],mass[kg],mass_propellant[kg]
0.1,-0.00022309967384115652,0.06394300210612548,-0.0022309967384115652,0.6394300210612548,1.5707921455777616,-4.1812171350090935e-05,1.574285352352123,-0.0034932067743613793,6939072.482012794,4178687.001380651
0.2,-0.0006764223143469625,0.19190555839742757,-0.00453322640505806,1.2796255629130209,1.5707836384656728,-8.507112088877818e-05,1.5743389314226548,-0.0035552929569819813,6935794.637042091,4175409.1564099477
0.30000000000000004,-0.0013592161063365681,0.38396440615618593,-0.006827937919896056,1.9205884775875837,1.5707707952195504,-0.00012843246122338733,1.5743514398416725,-0.0035806446221220423,6932516.791583107,4172131.3109509633
0.4,-0.0022701433802026346,0.640196398894944,-0.009109272738660665,2.5623199273875805,1.5707536033816205,-0.00017191837929856607,1.5743513997837464,-0.0035977964021258746,6929238.946612404,4168853.46598026
0.5,-0.003407146784380475,0.9606785180230548,-0.011370034041778401,3.204821191281109,1.5707320507252396,-0.00021552656380998748,1.5743441023678026,-0.0036120516425630633,6925961.101641701,4165575.621009557
0.6,-0.004767450587459205,1.3454878730184234,-0.013603038030787301,3.8480935499536866,1.570706125174358,-0.0002592555088156538,1.57433131917286,-0.003625193998502141,6922683.2566709975,4162297.776038854
0.7,-0.006347562298832245,1.7947017131436938,-0.0158011171137304,4.492138401252704,1.570675814717458,-0.0003031045689994971,1.5743138168040172,-0.003638002086559178,6919405.411700294,4159019.931068151
0.7999999999999999,-0.008143271311770589,2.3083974160605596,-0.017957090129383433,5.136957029168657,1.570641107377175,-0.00034707340282958484,1.5742919793543049,-0.003650871977129766,6916127.566729591,4155742.0860974477
0.8999999999999999,-0.010149647295510737,2.886652476421779,-0.020063759837401482,5.782550603612197,1.5706019911845488,-0.0003911619262632032,1.5742660204817007,-0.0036640292971519273,6912849.722247169,4152464.241615026
0.9999999999999999,-0.012361036776153035,3.5295445407199395,-0.022113894806422972,6.428920642981604,1.570558454187043,-0.00043536997505884325,1.5742360655657817,-0.0036776113787386766,6909571.8777647475,4149186.397132604
1.0999999999999999,-0.014771062424831699,4.237151395912007,-0.024100256486786643,7.076068551920677,1.5705104844067352,-0.00047969780307769686,1.5742021959046526,-0.0036917114979173604,6906294.033282326,4145908.552650182
1.2,-0.01737261811387905,5.009550934842735,-0.026015556890473523,7.723995389307277,1.5704580698753576,-0.0005241453137749934,1.5741644617047175,-0.003706391829359834,6903016.188799904,4142630.70816776
1.3,-0.02015786713261015,5.84682120272562,-0.027852490187310987,8.372702678828848,1.57040119861275,-0.0005687126260771996,1.5741228974992925,-0.0037216988865425016,6899738.344317482,4139352.8636853383
1.4000000000000001,-0.023118238214504486,6.749040385738132,-0.029603710818943335,9.022191830125125,1.5703398586441684,-0.000613399685815084,1.5740775255474606,-0.003737666903292247,6896460.49983506,4136075.0192029164
1.5000000000000002,-0.02624442531793022,7.716286776394164,-0.03126187103425734,9.672463906560319,1.5702740379483102,-0.0006582069585809173,1.5740283638933734,-0.003754325945063197,6893182.654864357,4132797.1742322133
1.6000000000000003,-0.029526381921077906,8.74863882010101,-0.03281956603147688,10.323520437068456,1.5702037245071523,-0.000703134411580144,1.5739754221108997,-0.0037716976037474037,6889904.810626076,4129519.329993932
1.7000000000000004,-0.032953319864410115,9.846175092096486,-0.03426937943332207,10.975362719954742,1.5701289062700203,-0.0007481823713201388,1.5739187081631087,-0.003789801893088418,6886626.9656553725,4126241.485023229
1.8000000000000005,-0.036513695258404436,11.008974297638325,-0.035603753939943236,11.62799205541839,1.5700495713602578,-0.0007933490976257349,1.5738582176618987,-0.0038086463016409056,6883349.121417091,4122963.6407849477
1.9000000000000006,-0.04019511968248152,12.23711529536833,-0.036814244240770795,12.28140997730005,1.5699657096719262,-0.0008386168833170074,1.5737938762657124,-0.003828166593786264,6880071.276934669,4119685.796302526
2.0000000000000004,-0.04398439793963935,13.530677039385672,-0.037892782571578305,12.935617440173422,1.5698773121136662,-0.0008839755825990409,1.5737256553995194,-0.0038483432858531508,6876793.432696388,4116407.9520642445
2.1000000000000005,-0.047867440075053294,14.889738649140257,-0.03883042135413944,13.59061609754585,1.5697843721972156,-0.0009293991645060128,1.573653468473718,-0.0038690962765024484,6873515.588213966,4113130.1075818227
2.2000000000000006,-0.05182936079028751,16.3143793514566,-0.0396192071523421,14.246407023163446,1.5696868841438363,-0.0009748805337929649,1.573577316061233,-0.003890431917396686,6870237.743975685,4109852.2633435414
2.3000000000000007,-0.05585431936739395,17.804678538865254,-0.040249585771064425,14.902991874086526,1.5695848458231156,-0.0010203832072070715,1.5734970924028437,-0.003912246579728107,6866959.899737404,4106574.41910526
2.400000000000001,-0.05992571249617254,19.360715723217037,-0.040713931287785936,15.56037184351785,1.5694782551356483,-0.0010659068746738676,1.5734128348569427,-0.003934579721294407,6863682.055987404,4103296.57535526
2.500000000000001,-0.06402617139696042,20.9825705358078,-0.041004589007878775,16.218548125907624,1.5693671100405373,-0.0011114509511091874,1.5733245741646322,-0.003957464124094923,6860404.212237404,4100018.73160526
2.600000000000001,-0.06813755997434574,22.67032277417037,-0.041113885773853324,16.877522383625696,1.569251408562177,-0.001157014783603308,1.573232336270345,-0.003980927708168158,6857126.3679991225,4096740.887366979
2.700000000000001,-0.07224097422073095,24.424052343954827,-0.0410341424638521,17.537295697844595,1.5691311487737651,-0.001202597884118591,1.5731361440784157,-0.004004995304650594,6853848.523760841,4093463.0431286977
2.800000000000001,-0.07631674166447525,26.243839305723895,-0.04075767443744295,18.197869617690703,1.5690063287803848,-0.0012481999338037114,1.5730360178765401,-0.004029689096155309,6850570.67952256,4090185.1988904164
2.9000000000000012,-0.08034435932588402,28.12976382842568,-0.04027617661408779,18.85924522701786,1.5688769478439917,-0.0012938093639319405,1.572931943300114,-0.004054995456122423,6847292.835284279,4086907.354652135
3.0000000000000013,-0.0843024709862368,30.081906212879478,-0.0395811166035279,19.521423844537967,1.5687430067796133,-0.001339410643784218,1.5728238972569104,-0.004080890477297094,6844014.990801857,4083629.5101697133
3.1000000000000014,-0.08816894728616131,32.10034691531271,-0.03866476299924504,20.184407024332383,1.568604506450484,-0.0013850032912926934,1.5727119003195575,-0.004107393869073439,6840737.146563576,4080351.665931432
3.2000000000000015,-0.09192088418358711,34.185166500753866,-0.037519368974257915,20.848195854411546,1.5684614477765215,-0.0014305867396253555,1.5725959706936479,-0.004134522917126349,6837459.302325294,4077073.821693151
3.3000000000000016,-0.09553458180180746,36.336445678254584,-0.03613697618220346,21.512791775007187,1.5683138321073995,-0.0014761566912204478,1.572476115386309,-0.00416228327890944,6834181.458087013,4073795.9774548695
3.4000000000000017,-0.09898547460749257,38.55426528934996,-0.034508928056851185,22.178196110953778,1.5681616624999872,-0.001521696074122683,1.5723523099792158,-0.004190647479228593,6830903.613604591,4070518.1329724477
3.5000000000000018,-0.10224821910243004,40.838706308216366,-0.03262744494937464,22.844410188664014,1.5680049420793818,-0.001567204206054411,1.5722245721509598,-0.0042196300715779955,6827625.76936631,4067240.2887341664
3.600000000000002,-0.10529669442333306,43.18984987695888,-0.030484753209030227,23.511435687425134,1.5678436740147774,-0.0016126806460437652,1.572092918654754,-0.004249244639976668,6824347.924883888,4063962.4442517445
3.700000000000002,-0.1081037185292956,45.60777721203905,-0.028070241059625398,24.179273350801722,1.567677866760162,-0.0016580725461540994,1.5719572478880135,-0.004279381127851423,6821070.080645607,4060684.6000134633
3.800000000000002,-0.11064116006602437,48.0925696864378,-0.025374415367287725,24.847924743987477,1.567507531981765,-0.0017033477839701776,1.571817514954808,-0.0043099829730428585,6817792.236407326,4057406.755775182
3.900000000000002,-0.11288010760262931,50.64430880638345,-0.02238947536604942,25.517391199456544,1.5673326814415949,-0.0017485054017020764,1.5716737468040742,-0.004341065362479357,6814514.3914366225,4054128.910804479
4.000000000000002,-0.11479087238544848,53.263076188038745,-0.0191076478281917,26.187673816552966,1.5671533269610174,-0.0017935448057751022,1.5715259694722574,-0.0043726425112400324,6811236.547198341,4050851.0665661977
4.100000000000001,-0.11634298749583614,55.948953616306,-0.015521151103876652,26.858774282672517,1.5669694804470493,-0.0018384651396807377,1.5713742068281695,-0.004404726381120216,6807958.702227638,4047573.2215954945
4.200000000000001,-0.11750520817684437,58.70202299805716,-0.011622206810082289,27.530693817511633,1.5667811539034027,-0.0018832654364665852,1.5712184812889571,-0.004437327385554468,6804680.857745216,4044295.3771130727
4.300000000000001,-0.11824551415853143,61.52236636223448,-0.007403059816870587,28.20343364177315,1.566588359401257,-0.0019279450214566161,1.5710588146799136,-0.004470455278656527,6801403.013262794,4041017.532630651
4.4,-0.11853110886345693,64.41006585999199,-0.002855947049254985,28.87699497757514,1.5663911091098048,-0.0019725029145224856,1.5708952272186478,-0.004504118108842992,6798125.1687803725,4037739.688148229
4.5,-0.11832842302380925,67.3652037765928,0.0020268583964767346,29.551379166008047,1.566189415245388,-0.0020169386441687555,1.570727739187465,-0.004538323942077094,6794847.324297951,4034461.843665807
4.6,-0.11760311191295307,70.38786254332828,0.007253111108561784,30.2265876673549,1.5659832901372457,-0.0020612510814223754,1.5705563688132291,-0.004573078675983444,6791569.479815529,4031183.999183385
4.699999999999999,-0.11631999606792076,73.47812471412192,0.012831158450323149,30.902621707936422,1.5657727473329746,-0.0021054280427114775,1.570381114201149,-0.004608366868174452,6788291.634844826,4027906.154212682
4.799999999999999,-0.11444301888460302,76.63607295388792,0.01876977183317742,31.57948239766,1.5655578024037533,-0.002149449292212231,1.5702019608269384,-0.004644158423185107,6785013.790362404,4024628.30973026
4.899999999999999,-0.11193535303489734,79.86179007399707,0.02507665849705692,32.257171201091566,1.5653384710052296,-0.0021933139852365374,1.5700189290097946,-0.004680458004564958,6781735.945879982,4021350.4652478383
4.999999999999998,-0.1087592768294615,83.15535900885823,0.03176076205435839,32.93568934861162,1.5651147711787596,-0.0022369982647005957,1.569832000471766,-0.004717229293006442,6778458.100909279,4018072.620277135
5.099999999999998,-0.10487621234388299,86.51686283967076,0.03883064485578509,33.615038308125335,1.5648867226821683,-0.0022804849659134527,1.569641170366748,-0.004754447684579777,6775180.255450294,4014794.774818151
5.1999999999999975,-0.10024681610816163,89.94638474736219,0.04629396235721352,34.29521907691418,1.564654345359647,-0.0023237732252114505,1.569446461260129,-0.004792115900482008,6771902.410479591,4011516.9298474477
5.299999999999997,-0.09483098220114343,93.44400805991305,0.054158339070182034,34.97623312550863,1.5644176591163066,-0.0023668624334050674,1.5692478954474793,-0.004830236331172744,6768624.565508888,4008239.0848767445
5.399999999999997,-0.08858784465842355,97.00981622889323,0.06243137542719877,35.65808168980188,1.5641766839211608,-0.002409751951458685,1.5690454947625498,-0.004868810841389015,6765346.720049904,4004961.23941776
5.4999999999999964,-0.08147577840695046,100.6438928059523,0.07112066251473095,36.3407657705907,1.5639314398245496,-0.0024524409661111613,1.568839280205247,-0.00490784038069747,6762068.874590919,4001683.393958776
5.599999999999996,-0.07345240315940757,104.3463215020548,0.08023375247542887,37.024286961025005,1.5636819469297072,-0.0024949289484241474,1.5686292728563833,-0.004947325926676127,6758791.029131935,3998405.5484997914
5.699999999999996,-0.06447438609684203,108.11718614031368,0.08978017062565548,37.70864638258875,1.5634282290525403,-0.0025371787716685127,1.5684154404572785,-0.004987211404738234,6755513.183672951,3995127.703040807
5.799999999999995,-0.05449759582612641,111.95657066795836,0.09976790270715619,38.39384527644681,1.5631703109480068,-0.002579181045334819,1.568197793685437,-0.0050274827374301445,6752235.338213966,3991849.8575818227
5.899999999999995,-0.04347715204126073,115.86455916831564,0.11020443784865686,39.079885003572834,1.5629082174429747,-0.0026209350503220057,1.5679763557096569,-0.005068138266682176,6748957.492754982,3988572.0121228383
5.999999999999995,-0.03136742869996312,119.84123583724906,0.12109723341297607,39.76676668933428,1.5626419734417627,-0.002662440012120131,1.567751149397323,-0.005109175955560374,6745679.6472959975,3985294.166663854
6.099999999999994,-0.018122057577213867,123.88668499513058,0.1324537112274925,40.45449157881526,1.562371603914687,-0.002703695270755553,1.5675221974520215,-0.00515059353733438,6742401.801837013,3982016.3212048695
6.199999999999994,-0.003693848862122361,128.00099111070028,0.14428208715091506,41.14306115569697,1.5620971353991109,-0.0027446851557615688,1.56728950227465,-0.005192366875539145,6739123.956378029,3978738.475745885
6.299999999999994,0.011965192040377446,132.18423874188227,0.15659040902499805,41.83247631181996,1.5618185957581823,-0.0027853964092867927,1.5670530705631307,-0.00523447480494843,6735846.110674904,3975460.63004276
6.399999999999993,0.028903794044048345,136.43651259525888,0.16938602003670897,42.522738533766145,1.5615360129532472,-0.0028258280493520397,1.5668129256790149,-0.005276912725767691,6732568.2644834975,3972182.783851354
6.499999999999993,0.047171461177412714,140.7578974905946,0.18267667133364368,43.21384895335714,1.5612494158520718,-0.002865971011754154,1.5665690804922323,-0.005319664640160537,6729290.4187803725,3968904.938148229
6.5999999999999925,0.06681845949693437,145.14847836092957,0.19646998319521647,43.90580870334994,1.5609588340552727,-0.0029058179679898825,1.5663215505033594,-0.005362716448086724,6726012.572588966,3965627.0919568227
6.699999999999992,0.08789578213805986,149.60834027650978,0.21077322641125493,44.59861915580192,1.5606642973335567,-0.0029453672171595143,1.5660703585652147,-0.005406061231657988,6722734.72639756,3962349.2457654164
6.799999999999992,0.11045520577832779,154.13756843302463,0.2255942364026793,45.292281565148414,1.5603658367148494,-0.0029846061870727495,1.565815514103358,-0.005449677388508656,6719456.880206154,3959071.39957401
6.8999999999999915,0.13454924601178636,158.73624810412272,0.24094040233458583,45.98679671098104,1.5600634837612342,-0.0030235295361527377,1.565557036064849,-0.005493552303614813,6716179.0340147475,3955793.553382604
6.999999999999991,0.16023116158517262,163.40446472485883,0.25681915573386244,46.682166207360936,1.5597572707069798,-0.003062130542544503,1.565294941882928,-0.005537671175948278,6712901.187823341,3952515.7071911977
7.099999999999991,0.18755491897973883,168.1423038442135,0.2732375739456621,47.378391193546726,1.559447229893347,-0.003100408136326351,1.565029255819225,-0.005582025925877865,6709623.341387794,3949237.860755651
7.19999999999999,0.21657518989885388,172.94985113713977,0.29020270919115054,48.07547292926265,1.5591333938005358,-0.0031383609281113206,1.56476000168411,-0.005626607883574053,6706345.494463966,3945960.0138318227
7.29999999999999,0.2473473461410561,177.8271923689174,0.30772156242202225,48.7734123177762,1.5588157950349624,-0.0031759876557345586,1.5644872033435773,-0.0056714083086149,6703067.648028419,3942682.167396276
7.39999999999999,0.2799275014559972,182.77441344295104,0.32580155314941106,49.472210740336386,1.5584944671699095,-0.0032132786505280437,1.5642108753170971,-0.005716408147187657,6699789.8015928725,3939404.320960729
7.499999999999989,0.3143726510600838,187.79160036511865,0.34445149604086545,50.171869221676225,1.5581694473778638,-0.003250197920456614,1.5639310038613683,-0.005761556483504515,6696511.955157326,3936126.474525182
7.599999999999989,0.35074047542884645,192.87883927973354,0.3636782436876265,50.87238914614897,1.5578407729370414,-0.0032867444082246003,1.5636476149961576,-0.005806842059116191,6693234.1082334975,3932848.627601354
7.699999999999989,0.3890893353167861,198.03621644580934,0.38348859887939624,51.57377166075798,1.557508481234403,-0.003322917026383177,1.5633607346506437,-0.005852253416240627,6689956.261309669,3929570.780677526
7.799999999999988,0.42947826527223876,203.26381822521273,0.40388929955452646,52.276017794033976,1.5571726097482315,-0.0033587148617158146,1.5630703889652873,-0.00589777921705581,6686678.414385841,3926292.9337536977
7.899999999999988,0.47196696826113604,208.5617311066979,0.4248870298889731,52.979128814851634,1.5568331960402815,-0.0033941370794998843,1.5627766041163647,-0.005943408076083179,6683400.567462013,3923015.0868298695
7.999999999999988,0.5166158125244248,213.93004168210842,0.4464884426328872,53.68310575410527,1.556490277798402,-0.0034291824187947188,1.5624794058268638,-0.005989128028461854,6680122.720538185,3919737.2399060414
8.099999999999987,0.563485942012398,219.36883665846094,0.4687012948797322,54.3879497635252,1.5561438949361401,-0.003463828622617824,1.562178798561885,-0.00603490362574477,6676844.873614357,3916459.3929822133
8.199999999999987,0.6126391659355246,224.87820287006645,0.49153223923126654,55.093662116054986,1.555794087692308,-0.003498072438322013,1.5618748069801431,-0.006080719287835157,6673567.026690529,3913181.546058385
8.299999999999986,0.6641379413768314,230.4582272666902,0.5149877544130677,55.80024396623731,1.5554408964101645,-0.0035319128214361503,1.5615674579427732,-0.00612656153260871,6670289.179766701,3909903.699134557
8.399999999999986,0.7180453697374504,236.10899688969437,0.5390742836061898,56.50769623004172,1.555084361586462,-0.003565348237025146,1.5612567779013315,-0.006172416314869533,6667011.332354591,3906625.8517224477
8.499999999999986,0.774425287670321,241.8305989201437,0.5637991793287069,57.216020304493426,1.5547245256251911,-0.003598359612709158,1.5609427765247363,-0.006218250899545197,6663733.484698341,3903348.0040661977
8.599999999999985,0.8333421672331665,247.62312065496783,0.589168795628454,57.92521734824133,1.554361431126177,-0.0036309449901408566,1.5606254805431554,-0.0062640494169783345,6660455.637042091,3900070.1564099477
8.699999999999985,0.8948611241333813,253.48664947105647,0.6151895690021478,58.63528816088625,1.553995121162056,-0.003663099641210184,1.5603049142534042,-0.00630979309134827,6657177.78889756,3896792.3082654164
8.799999999999985,0.9590478908767998,259.4212728854424,0.6418676674341854,59.34623414385928,1.5536256388930054,-0.0036948226905057792,1.5599811057401725,-0.006355466847167035,6653899.940753029,3893514.460120885
8.899999999999984,1.0259688152241533,265.4270785193923,0.6692092434735364,60.05805633949884,1.5532530276516392,-0.0037261124136624504,1.5596540822733842,-0.006401054621745006,6650622.093096779,3890236.612464635
8.999999999999984,1.0956908721768956,271.5041540864863,0.6972205695274232,60.77075567094017,1.5528773312876822,-0.003756963639568664,1.5593238681624988,-0.006446536874816555,6647344.245440529,3886958.764808385
9.099999999999984,1.1682817198013957,277.65258742884237,0.7259084762450014,61.4843334235603,1.552498595284451,-0.0037873600323128334,1.558990477885538,-0.006491882601086907,6644066.3972959975,3883680.916663854
9.199999999999983,1.2438096170699164,283.87246649321713,0.7552789726852064,62.1987906437476,1.552116865398409,-0.003817298860420921,1.5586539387248546,-0.006537073326445597,6640788.5496397475,3880403.069007604
9.299999999999983,1.3223434157016856,290.16387934315577,0.785337986317692,62.91412849938633,1.5517321876281303,-0.0038467777027867693,1.558314278342444,-0.006582090714313704,6637510.701251076,3877125.220618932
