time[s],x[m],y[m],vx[m/s],vy[m/s],theta[rad],theta_dot[rad/s],gamma[rad],alpha[rad],mass[kg],mass_propellant[kg]
0.1,-0.00011411816515726253,0.06394331323994878,-0.0011411816515726253,0.6394331323994878,1.5707941880520675,-2.138742828961145e-05,1.5725810019738486,-0.0017868139217811496,6939072.477862404,4178686.99723026
0.2,-0.0003456851219189901,0.19190652676216738,-0.0023156695676172755,1.2796321352221858,1.570789842426419,-4.3456256483825733e-05,1.5726059617486532,-0.0018161193222341332,6935794.628497169,4175409.147865026
0.30000000000000004,-0.0006941707594202052,0.38396635545537383,-0.0034848563750121517,1.9205982869320648,1.570783287422281,-6.555004138208005e-05,1.5726107887645637,-0.0018275013422828223,6932516.778887794,4172131.298255651
0.4,-0.0011586485653916601,0.6401996537708106,-0.00464477805971455,2.5623329831543664,1.5707745212440083,-8.766178272553882e-05,1.5726090392732448,-0.0018345180292365093,6929238.92952256,4168853.4488904164
0.5,-0.0017378156625444422,0.9606834043469882,-0.005791670971527822,3.204837505761776,1.57076354240545,-0.00010978838558374378,1.5726034900773487,-0.0018399476718986563,6925961.080157326,4165575.599525182
0.6,-0.002430000813321319,1.3454947297312683,-0.006921851507768769,3.848113253842801,1.570750349565453,-0.00013192839997092296,1.5725950898732768,-0.0018447403078238889,6922683.230547951,4162297.749915807
0.7,-0.003233166142623264,1.794710869454704,-0.008031653293019449,4.492161397234357,1.5707349414819034,-0.00015408083549578705,1.5725842511423547,-0.0018493096604512704,6919405.380938576,4159019.900306432
0.7999999999999999,-0.004144905792767215,2.308409214860108,-0.009117396501439504,5.136983454054041,1.5707173170233708,-0.000176244585326975,1.572571179100615,-0.0018538620772441394,6916127.531573341,4155742.0509411977
0.8999999999999999,-0.00516244851826838,2.8866672514584852,-0.010175427255011645,5.7825803659837725,1.5706974751072913,-0.00019841916079434827,1.5725559939518587,-0.0018585188445674472,6912849.682696388,4152464.2020642445
0.9999999999999999,-0.006282656669138853,3.5295626284749657,-0.01120208150870473,6.428953770164804,1.5706754147058963,-0.00022060401394865598,1.572538767411566,-0.0018633527056697297,6909571.833331154,4149186.35269901
1.0999999999999999,-0.007502022978808958,4.237173124351818,-0.012193663096701052,7.07610495876852,1.5706511348931078,-0.00024279812788561149,1.5725195419108644,-0.0018684070177565903,6906293.983965919,4145908.503333776
1.2,-0.008816673364039802,5.009576635318458,-0.013146503852308443,7.724035109666399,1.570624634779528,-0.0002650011357983845,1.5724983505390946,-0.0018737157595665188,6903016.134600685,4142630.6539685414
1.3,-0.010222364331754488,5.846851221896568,-0.01405690967714686,8.372745865781095,1.5705959135483574,-0.00028721231170762267,1.572475214067394,-0.0018793005190367307,6899738.285235451,4139352.804603307
1.4000000000000001,-0.01171448271350832,6.749075051141446,-0.014921183817538325,9.022238292448783,1.570564970447814,-0.0003094310054345033,1.572450148133916,-0.0018851776861019687,6896460.4363584975,4136074.955726354
1.5000000000000002,-0.013288044731130556,7.716326419962771,-0.01573562017622235,9.672513688213247,1.5705318047962258,-0.00033165651588091714,1.5724231641198654,-0.0018913593236395965,6893182.586993263,4132797.1063611195
1.6000000000000003,-0.014937696148689113,8.748683766918338,-0.016496514175585564,10.323573469555676,1.570496415967053,-0.00035388829172968935,1.5723942715553372,-0.0018978555882842585,6889904.737628029,4129519.256995885
1.7000000000000004,-0.016657711812468324,9.846225672384012,-0.017200156637792115,10.975419054656731,1.5704588033857347,-0.00037612581318177126,1.5723634781238025,-0.0019046747380677687,6886626.888262794,4126241.407630651
1.8000000000000005,-0.018441993289932915,11.009030835501745,-0.017842814774645915,11.628051631177325,1.5704189665616197,-0.00039836824115086216,1.57233078857203,-0.0019118220104101802,6883349.038653419,4122963.558021276
1.9000000000000006,-0.020284070329150247,12.237178120822685,-0.018420770392173328,12.281472853209406,1.570376905049313,-0.0004206151230658524,1.572296208510953,-0.0019193034616400428,6880071.189044044,4119685.708411901
2.0000000000000004,-0.022177101253645883,13.530746488749246,-0.018930309244956364,12.935683679265606,1.5703326184298778,-0.00044286619435291986,1.5722597435110655,-0.0019271250811876417,6876793.33967881,4116407.8590466664
2.1000000000000005,-0.024113849000782225,14.889815042177506,-0.0193674774713634,13.590685534282597,1.5702861067450888,-0.0004651168478889756,1.572221381058138,-0.0019352743130491845,6873515.490801857,4113130.0101697133
2.2000000000000006,-0.0260866518235859,16.314463026673252,-0.019728028228036758,14.246479844957438,1.5702373710321238,-0.00048735712965138235,1.5721810910196568,-0.0019437199875329547,6870237.6414366225,4109852.160804479
2.3000000000000007,-0.02808747238313248,17.804769830677973,-0.020008205595465796,14.903068040047216,1.5701864124021379,-0.0005095862998588807,1.5721388821345357,-0.0019524697323978213,6866959.7918272475,4106574.311195104
2.400000000000001,-0.030107897558752136,19.360814962384687,-0.020204251756196574,15.560451317067125,1.5701332320375398,-0.0005318036459791941,1.5720947621673775,-0.0019615301298376853,6863681.942950294,4103296.462318151
2.500000000000001,-0.03213913873598681,20.982678084829477,-0.020312411772346738,16.218631224447893,1.5700778311793242,-0.0005540085821565384,1.5720487383499164,-0.0019709071705922288,6860404.09358506,4100018.6129529164
2.600000000000001,-0.03417203099053978,22.67043898113542,-0.02032892254552974,16.87760896305942,1.5700202111361856,-0.000576200431385247,1.57200081688345,-0.001980605747264441,6857126.244219826,4096740.763587682
2.700000000000001,-0.03619702492776204,24.424177566315677,-0.02024993937222258,17.53738585180259,1.569960373429679,-0.0005983770650653821,1.5719509989075942,-0.0019906254779151755,6853848.3953428725,4093462.914710729
2.800000000000001,-0.038204165854030206,26.243973899099036,-0.020071409262681642,18.19796332783359,1.569898320174322,-0.0006205325535702871,1.5718992744578952,-0.002000954283573275,6850570.545977638,4090185.0653454945
2.9000000000000012,-0.040183119517135026,28.129908158779955,-0.019789536631048207,18.859342596809206,1.5698340535963686,-0.0006426657795341306,1.5718456491276447,-0.002011595531276056,6847292.696612404,4086907.21598026
3.0000000000000013,-0.042123175476093656,30.082060680405327,-0.019400559589586315,19.521525216253725,1.5697675759665435,-0.0006647762982519752,1.571790129942331,-0.0020225539757874333,6844014.847003029,4083629.366370885
3.1000000000000014,-0.044013244096437205,32.100511919911355,-0.01890068620343546,20.18451239506028,1.5696988896527617,-0.0006868631378178769,1.571732722002729,-0.002033832349967346,6840736.997393654,4080351.51676151
3.2000000000000015,-0.04584185848490183,34.18534248934956,-0.018286143884646246,20.848305694382063,1.5696279970818439,-0.0007089257091779475,1.5716734311247857,-0.002045434042941885,6837459.147784279,4077073.667152135
3.3000000000000016,-0.047597172725851414,36.33663313368441,-0.017553142409495827,21.512906443348484,1.5695549007670588,-0.0007309631478507622,1.5716122620363937,-0.0020573612693348675,6834181.298419044,4073795.817786901
3.4000000000000017,-0.04926696294939403,38.55446471924612,-0.016697902235426203,22.17831585561714,1.5694796032876117,-0.0007529747944705363,1.571549219809365,-0.0020696165217533036,6830903.448809669,4070517.968177526
3.5000000000000018,-0.050838626491619486,40.838918233890055,-0.015716635422254502,22.84453514643938,1.5694021073001012,-0.0007749598751042579,1.5714843089683943,-0.0020822016682930933,6827625.599444435,4067240.1188122914
3.600000000000002,-0.052299180824446866,43.190074845718016,-0.014605543328273784,23.511566118279596,1.5693224155567593,-0.0007969174334179243,1.5714175334544636,-0.002095117897704224,6824347.750079201,4063962.269447057
3.700000000000002,-0.053635265139398994,45.6080158329795,-0.013360843149521268,24.179409872614787,1.5692405308732849,-0.0008188468347450985,1.571348897840264,-0.002108366966979247,6821069.900469826,4060684.419837682
3.800000000000002,-0.054833139609420815,48.09282261939321,-0.011978744700218185,24.84806786413713,1.5691564561409383,-0.0008407473234660147,1.5712784062804228,-0.002121950139484463,6817792.051104591,4057406.5704724477
3.900000000000002,-0.055878684420174345,50.64457676258235,-0.010455448107535282,25.51754143189146,1.5690701943426693,-0.0008626179826905024,1.5712060624879038,-0.0021358681452345873,6814514.201739357,4054128.7211072133
4.000000000000002,-0.05675740049626455,53.26335993076539,-0.008787160760902074,26.187831681830325,1.5689817485381006,-0.0008844580456861954,1.5711318704373747,-0.0021501218992741045,6811236.3523741225,4050850.871741979
4.100000000000001,-0.05745440943749734,55.949253973358026,-0.006970089412327914,26.85894042592639,1.568891121862281,-0.0009062667581956851,1.5710558340258347,-0.002164712163553739,6807958.5027647475,4047573.022132604
4.200000000000001,-0.057954452697684455,58.702340862456104,-0.005000432601871161,27.530868890980784,1.5687983175416054,-0.0009280432067551354,1.5709779568250524,-0.002179639283446999,6804680.653399513,4044295.1727673695
4.300000000000001,-0.05824189217412216,61.522702692970746,-0.0028743947643770245,28.203618305146446,1.5687033388813374,-0.000949786602679346,1.5708982426102125,-0.002194903728875097,6801402.804034279,4041017.323402135
4.4,-0.05830070417048006,64.41042171806802,-0.0005881199635790809,28.877190250972816,1.568606189375245,-0.0009714950609244215,1.5708166930410026,-0.0022105036657575905,6798124.954424904,4037739.47379276
4.5,-0.05811441457731608,67.36558030230117,0.0018628959316398554,29.551585842331505,1.5685068739041177,-0.0009931547112733683,1.5707332880145377,-0.0022264141104200164,6794847.105547951,4034461.624915807
4.6,-0.057666170658175246,70.38826098058898,0.004482439191408354,30.226806782878107,1.568405397410651,-0.0010147649346660048,1.5706480332887136,-0.0022426358780625044,6791569.256182716,4031183.7755505727
4.699999999999999,-0.05693874080287375,73.47854641134346,0.007274298553014952,30.902854307544782,1.5683017649119788,-0.0010363249867232813,1.5705609343503584,-0.00225916943837956,6788291.406573341,4027905.9259411977
4.799999999999999,-0.05591451142624465,76.63651938839604,0.010242293766291,31.57972977052578,1.568195981559725,-0.0010578335225374467,1.5704719955393227,-0.0022760139795976464,6785013.556963966,4024628.0763318227
4.899999999999999,-0.054575491437404505,79.86226282936525,0.013390199888401485,32.25743440969214,1.5680880525643144,-0.0010792899541061274,1.5703812225138418,-0.0022931699495274405,6781735.707598732,4021350.2269665883
4.999999999999998,-0.05290330909154072,83.15585981118691,0.016721823458637854,32.935969818216584,1.567977983254397,-0.0011006930991743307,1.5702886198072428,-0.0023106365528458017,6778457.857989357,4018072.3773572133
5.099999999999998,-0.050879214898050446,86.51739354672019,0.02024094193490274,33.61533735533272,1.5678657790321135,-0.0011220422228341586,1.5701941927370193,-0.002328413704905774,6775180.0086241225,4014794.527991979
5.1999999999999975,-0.04848407927625534,89.94694738489967,0.0239513562179511,34.295538381794884,1.5677514454206565,-0.0011433361145696853,1.5700979457968398,-0.002346500376183336,6771902.1590147475,4011516.678382604
5.299999999999997,-0.04569839507506121,93.44460479909803,0.02785684201194131,34.976574141983555,1.5676349880256804,-0.001164573949761734,1.569999884124188,-0.0023648960985076517,6768624.309649513,4008238.8290173695
5.399999999999997,-0.04250227785842442,97.01044942271858,0.03196117216636787,35.658446236205506,1.5675164125325671,-0.0011857549311312468,1.5699000128221654,-0.0023836002895982755,6765346.460284279,4004960.979652135
5.4999999999999964,-0.03887546383564432,100.64456501392465,0.036268140227801025,36.341155912060636,1.5673957247559185,-0.0012068777664855708,1.5697983362996377,-0.0024026115437192352,6762068.610919044,4001683.130286901
5.599999999999996,-0.03479731351822457,104.34703546761722,0.04078150317419749,37.024704536925746,1.567272930575262,-0.0012279418065652495,1.5696948598907898,-0.002421929315527871,6758790.76155381,3998405.2809216664
5.699999999999996,-0.030246808540952252,108.1179448274353,0.0455050497727232,37.709093598180765,1.5671480360025993,-0.0012489457266268108,1.5695895879597186,-0.002441551957119259,6755512.912188576,3995127.431556432
5.799999999999995,-0.025202555230627442,111.95737725041062,0.0504425331032481,38.39432422975324,1.567021047124045,-0.0012698887855426368,1.5694825257294347,-0.0024614786053895887,6752235.062579201,3991849.581947057
5.899999999999995,-0.01964276684624075,115.865417042647,0.055597883843866935,39.08039792236384,1.5668919704343955,-0.0012907668964961699,1.569373673769578,-0.0024817033351824946,6748957.213213966,3988571.7325818227
5.999999999999995,-0.013545217863830509,119.84214867134449,0.06097548982410241,39.76731628697496,1.5667608136827775,-0.0013115675161806848,1.5692630213638965,-0.002502207681118973,6745679.363848732,3985293.8832165883
6.099999999999994,-0.006887307594488301,123.8876567294309,0.06657910269342207,40.45508058086412,1.5666275847179496,-0.001332289648280273,1.5691505744783123,-0.0025229897603626927,6742401.514239357,3982016.0336072133
6.199999999999994,0.00035426317640423893,128.00202594758062,0.0724157077089254,41.14369218149718,1.5664922974331863,-0.0013528728476325039,1.5690362603280326,-0.0025439628948462634,6739123.664629982,3978738.1839978383
6.299999999999994,0.008203191467975155,132.18534119440136,0.07848928291570915,41.83315246820753,1.5663549662790235,-0.0013733115416279728,1.5689200830460268,-0.002565116767003328,6735845.815020607,3975460.3343884633
6.399999999999993,0.01668354442717972,136.43768747660482,0.08480352959204565,42.52346282203452,1.5662156057860914,-0.0013936049293212073,1.5688020532447362,-0.0025864474586447805,6732567.965411232,3972182.4847790883
6.499999999999993,0.025819760004897278,140.7591499272929,0.09136215577717557,43.21462450688069,1.5660742306129705,-0.0014137517312102761,1.5686821809310405,-0.0026079503180700403,6729290.115801857,3968904.6351697133
6.5999999999999925,0.03563664596147631,145.14981382988645,0.0981688595657903,43.90663902593565,1.5659308555621814,-0.001433750507891423,1.5685604759495437,-0.0026296203873623636,6726012.266192482,3965626.7855603383
6.699999999999992,0.046159450002686564,149.6097646064183,0.10522804041210257,44.599507765318414,1.5657854968985083,-0.0014535866367302007,1.5684369320296772,-0.0026514351311688333,6722734.416583107,3962348.9359509633
6.799999999999992,0.057413799850376625,154.13908781771,0.11254349847690062,45.29323211291675,1.5656381712918241,-0.0014732560668407162,1.5683115567396568,-0.002673385447832688,6719456.566973732,3959071.0863415883
6.8999999999999915,0.06942568654052736,158.73786917545021,0.12011886690150733,45.98781357740233,1.5654888955484167,-0.0014927574340732118,1.5681843610502262,-0.0026954655018094353,6716178.717364357,3955793.2367322133
6.999999999999991,0.08222146201973023,163.40619450664954,0.1279577547920287,46.68325331199315,1.5653376866091242,-0.0015120893929260785,1.5680553559912724,-0.0027176693821482356,6712900.867754982,3952515.3871228383
7.099999999999991,0.09582783678345777,168.1441497776125,0.13606374763727536,47.37955270962957,1.5651845615508724,-0.0015312505825173272,1.5679245526684549,-0.0027399911175824965,6709623.018145607,3949237.5375134633
7.19999999999999,0.11027187909319963,172.95182112987993,0.14444042309741853,48.07671352267434,1.565029537606512,-0.001550239443603463,1.567791961938594,-0.0027624243320820696,6706345.168536232,3945959.6879040883
7.29999999999999,0.12558100925264662,177.82929479695153,0.15309130159447,48.774736670715996,1.5648726321127426,-0.001569054937693375,1.567657595367304,-0.0027849632545613456,6703067.3191709975,3942681.838538854
7.39999999999999,0.1417830009588977,182.77665718792736,0.1620199170625108,49.47362390975834,1.5647138625682484,-0.0015876954449422537,1.5675214638466892,-0.002807601278440819,6699789.4695616225,3939403.988929479
7.499999999999989,0.1589059767792832,187.79399482804342,0.17122975820385508,50.173376401160596,1.5645532466031087,-0.0016061596513967267,1.5673835787256443,-0.0028303321225355837,6696511.6199522475,3936126.139320104
7.599999999999989,0.17697840632581058,192.88139438269832,0.1807242954652739,50.8739955465489,1.564390801981188,-0.0016244462192055373,1.5672439512970795,-0.0028531493158914234,6693233.7703428725,3932848.289710729
7.699999999999989,0.196029103585599,198.03894264567614,0.1905069725978842,51.57548262977827,1.5642265466050822,-0.0016425537610590597,1.567102592941549,-0.0028760463364667643,6689955.9207334975,3929570.440101354
7.799999999999988,0.21608722499340807,203.2667265751795,0.2005812140780907,52.27783929503343,1.5640604985161688,-0.0016604808891347235,1.5669595150115176,-0.0028990164953488495,6686678.0711241225,3926292.590491979
7.899999999999988,0.23718243013713375,208.56483325814855,0.21095205143725668,52.98106682969077,1.563892678871563,-0.001678196446058586,1.5668146980869015,-0.0029220192153385227,6683400.2215147475,3923014.740882604
7.999999999999988,0.2593448114213267,213.93334992240923,0.22162381284192942,53.685166642606866,1.563723110716766,-0.001695681547971643,1.566668137059573,-0.0029450263428070222,6680122.3719053725,3919736.891273229
8.099999999999987,0.2826046944783571,219.37236393686422,0.2325988305703041,54.3901401445498,1.563551815410725,-0.0017129530604090303,1.5665198639650983,-0.0029680485543732704,6676844.5222959975,3916459.041663854
8.199999999999987,0.3069928528674893,224.88196281166353,0.24388158389132167,55.095988747993225,1.5633788165889142,-0.0017299882181095328,1.5663698704121614,-0.0029910538232471584,6673566.6726866225,3913181.192054479
8.299999999999986,0.332540418448087,230.4622341624374,0.2554756558059776,55.802713507738616,1.563204138594197,-0.001746779947170483,1.5662181646436684,-0.003014026049471319,6670288.822588966,3909903.3419568227
8.399999999999986,0.3592788909916284,236.11326578240468,0.267384725435414,56.510316199672744,1.5630278067172472,-0.001763318769498312,1.5660647530216536,-0.0030369463044064293,6667010.972979591,3906625.4923474477
8.499999999999986,0.3872400984085791,241.83514557059587,0.27961207416950673,57.218797881911804,1.5628498465396812,-0.001779601775659734,1.565909648660448,-0.0030598021207668413,6663733.123370216,3903347.6427380727
8.599999999999985,0.4164561859726031,247.62796159202742,0.2921608756402402,57.92816021431555,1.562670283802881,-0.0017956273680011573,1.5657528661123512,-0.0030825823094702276,6660455.27327256,3900069.7926404164
8.699999999999985,0.44695963602070415,253.49180205391582,0.30503450048101044,58.63840461888413,1.56248914484185,-0.0018113896103086247,1.5655944160154336,-0.0031052711735835015,6657177.423174904,3896791.94254276
8.799999999999985,0.4787832438482197,259.4267552818239,0.3182360782751556,59.34953227908069,1.5623064562163034,-0.001826886255468222,1.5654343127038053,-0.003127856487501912,6653899.5730772475,3893514.092445104
8.899999999999984,0.5119601097123547,265.4329097438633,0.3317686586413509,60.061544620394045,1.5621222446357044,-0.0018421158059907276,1.5652725713464344,-0.0031503267107300115,6650621.722979591,3890236.2423474477
8.999999999999984,0.5465236386199414,271.5103540508872,0.34563528907586594,60.77444307023862,1.561936537033538,-0.0018570760216636067,1.5651092065964343,-0.003172669562896191,6647343.872881935,3886958.3922497914
9.099999999999984,0.5825075324989049,277.6591769807541,0.3598389387896353,61.48822929866929,1.5617493604931825,-0.0018717654035550087,1.5649442338807869,-0.00319487338760438,6644066.022784279,3883680.542152135
9.199999999999983,0.6199457884687313,283.87946740631384,0.37438255969826373,62.202904255597055,1.5615607422926592,-0.0018861820052338053,1.5647776682838221,-0.0032169259911629666,6640788.1726866225,3880402.692054479
