time[s],x[m],y[m],vx[m/s],vy[m/s],theta[rad],theta_dot[rad/s],gamma[rad],alpha[rad],mass[kg],mass_propellant[kg]
0.1,-0.00022314880594364445,1.5740266934930767,-0.0022314880594364443,0.7402669349307669,1.57079258134347,-3.745451426590453e-05,1.573810754692626,-0.003018173349156106,5735721.106568285,4267880.674452516
0.2,-0.0006764215950945221,1.722166490057632,-0.004532727891508777,1.4813979656455525,1.5707849642399563,-7.617103513745315e-05,1.5738560810617026,-0.0030711168217463225,5732842.998658129,4265002.56654236
0.30000000000000004,-0.0013595815739572913,1.9445059948692045,-0.0068315997886276925,2.2233950481157265,1.570773459142568,-0.00011505097388255947,1.5738689154002428,-0.0030954562576748224,5729964.890503832,4262124.458388063
0.4,-0.0022716623060766213,2.241131939170214,-0.009120807321193301,2.966259443010094,1.5707580507005021,-0.0001540844206584946,1.5738711686122504,-0.0031131179117482866,5727086.782349535,4259246.350233766
0.5,-0.003411007972544561,2.6121312363029197,-0.011393456664679398,3.709992971327057,1.5707387238167796,-0.00019326883722417244,1.573867335536725,-0.0031286117199453845,5724208.674439379,4256368.24232361
0.6,-0.004775280493913225,3.057590940023942,-0.013642725213686643,4.454597037210223,1.5707154634677105,-0.00023260349069057802,1.5738589343541043,-0.0031434708863937733,5721330.566529223,4253490.134413454
0.7,-0.006361459074346558,3.577598272662397,-0.015861785804333325,5.200073326384551,1.570688254649409,-0.0002720881830159901,1.5738466177455421,-0.0031583630961331544,5718452.4586190665,4250612.0265032975
0.7999999999999999,-0.008165838406069643,4.172240611356897,-0.018043793317230848,5.946423386945001,1.5706570823476123,-0.0003117230179661325,1.573830711796383,-0.003173629448770754,5715574.350953051,4247733.918837282
0.8999999999999999,-0.010184025366718613,4.841605516246894,-0.020181869606489707,6.693649048899968,1.5706219315317267,-0.0003515081588556403,1.5738113950041306,-0.0031894634724038973,5712696.243042895,4244855.810927126
0.9999999999999999,-0.01241091838307224,5.585780702726282,-0.022268930163536267,7.441751864793889,1.5705827874387792,-0.000391440929475311,1.5737887490226692,-0.0032059615838899713,5709818.135376879,4241977.70326111
1.0999999999999999,-0.01484070686662342,6.404854027621561,-0.024297884835511784,8.190733248952792,1.5705396355222427,-0.0004315191653649027,1.5737628272072708,-0.0032231916850280484,5706940.027710863,4239099.595595094
1.2,-0.017466772960060842,7.298913517417258,-0.026260660934374243,8.94059489795697,1.5704924630321402,-0.00047172490102610033,1.5737335570032145,-0.0032410939710743047,5704061.919800707,4236221.487684938
1.3,-0.020281737089330898,8.268047340438274,-0.028149641292700565,9.691338230210166,1.5704412581989993,-0.0005120483314101979,1.573700937227434,-0.0032596790284347144,5701183.8121346915,4233343.3800189225
1.4000000000000001,-0.023277475981909962,9.312343863145475,-0.02995738892579064,10.442965227072014,1.570386009878187,-0.0005524832081237854,1.5736649858490246,-0.0032789759708375943,5698305.704468676,4230465.272352907
1.5000000000000002,-0.026445152265605714,10.431891608291142,-0.031676762836957514,11.195477451456668,1.570326707005696,-0.0005930287249099519,1.5736257441595187,-0.003299037153822626,5695427.59680266,4227587.164686891
1.6000000000000003,-0.02977519469068338,11.626779241073548,-0.03330042425077665,11.948876327824054,1.5702633388771954,-0.000633681285006077,1.5735832280167634,-0.003319889139568044,5692549.489624926,4224709.057509157
1.7000000000000004,-0.0332572537322712,12.897095611461642,-0.03482059041587823,12.703163703880952,1.5701958958379687,-0.0006744303922657715,1.5735374158667648,-0.0033415200287960634,5689671.3824471915,4221830.9503314225
1.8000000000000005,-0.036880178756918285,14.242929698210915,-0.036229250246470814,13.45834086749272,1.570124369615263,-0.000715262227058233,1.573488275460064,-0.003363905844801174,5686793.275269457,4218952.843153688
1.9000000000000006,-0.040632075812409914,15.664370693427468,-0.03751897055491629,14.214409952165541,1.5700487523119693,-0.0007561730329369317,1.573435823161634,-0.0033870708496648305,5683915.1676034415,4216074.7354876725
2.0000000000000004,-0.04450032258182363,17.161507904343505,-0.03868246769413717,14.971372109160372,1.569969036115677,-0.0007971619629218155,1.573380083402726,-0.003411047287048996,5681037.060425707,4213196.628309938
2.1000000000000005,-0.04847150162672215,18.73443082383072,-0.03971179044898516,15.729229194872163,1.5698852143680893,-0.0008382174758790294,1.573321034495488,-0.0034358201273987365,5678158.953247973,4210318.521132204
2.2000000000000006,-0.05253135764199668,20.383229102478357,-0.04059856015274531,16.487982786476355,1.5697972822352106,-0.000879321328786102,1.5732586339569898,-0.0034613517217791934,5675280.846070238,4207440.413954469
2.3000000000000007,-0.056664862038988136,22.10799256288861,-0.04133504396991456,17.24763460410255,1.5697052355992553,-0.0009204663595538141,1.5731928852669907,-0.003487649667735404,5672402.738892504,4204562.306776735
2.400000000000001,-0.060856252000987765,23.908811185791716,-0.041913899619996295,18.008186229031033,1.5696090703768255,-0.0009616522242984906,1.5731238140499493,-0.003514743673123766,5669524.631226488,4201684.199110719
2.500000000000001,-0.06508902895389998,25.78577509614553,-0.04232776952912215,18.769639103538168,1.569508782513877,-0.0010028786294864302,1.5730514419594641,-0.003542659445587182,5666646.524048754,4198806.091932985
2.600000000000001,-0.06934595702011934,27.738974605631423,-0.04256928066219359,19.531995094858928,1.5694043679802243,-0.001044145336525597,1.5729757873698857,-0.0035714193896614344,5663768.41687102,4195927.984755251
2.700000000000001,-0.07360906104179199,29.768500184655796,-0.04263104021672655,20.29525579024372,1.5692958227713705,-0.0010854520885390819,1.572896865854739,-0.0036010430833686158,5660890.309205004,4193049.877089235
2.800000000000001,-0.07785962471058219,31.874442462557564,-0.042505636687901985,21.05942277901768,1.5691831429080452,-0.0011267986332530863,1.57281469070801,-0.003631547799964885,5658012.201294848,4190171.7691790788
2.9000000000000012,-0.08207818883183582,34.056892227792154,-0.042185641212536304,21.824497652345933,1.5690663244348295,-0.0011681847321566591,1.572729273401291,-0.0036629489664614656,5655134.093628832,4187293.661513063
3.0000000000000013,-0.08624454917089767,36.31594045639986,-0.0416636033906185,22.590482286077012,1.5689453634242732,-0.0012096101055628474,1.572640623681717,-0.003695260257443822,5652255.9859628165,4184415.5538470475
3.1000000000000014,-0.09033775473747208,38.65167826978513,-0.04093205566574396,23.357378133852745,1.5688202559736866,-0.0012510745058653637,1.572548750099026,-0.0037284941253394877,5649377.87805266,4181537.4459368913
3.2000000000000015,-0.09433590120445774,41.064196934891186,-0.039981464669856685,24.12518665106059,1.568691001595686,-0.0012925437800043187,1.5724535752400783,-0.003762573644392253,5646499.770386645,4178659.3382708756
3.3000000000000016,-0.09821600919112619,43.553587921031706,-0.038801079866684546,24.893909861405184,1.5685576052050794,-0.0013339639060669164,1.572354983055061,-0.003797377849981576,5643621.662476488,4175781.2303607194
3.4000000000000017,-0.10195434782339421,46.11994280094563,-0.03738338632268029,25.663548799139264,1.5684200717559016,-0.0013753344917772914,1.5722529982854256,-0.00383292652952405,5640743.554810473,4172903.1226947038
3.5000000000000018,-0.10552643450123514,48.763353364344425,-0.03572086677840925,26.43410563398793,1.5682784062372965,-0.0014166551860509973,1.5721476433678963,-0.003869237130599723,5637865.4469003165,4170025.0147845475
3.600000000000002,-0.10890703466573022,51.48391153306321,-0.03380600164495082,27.20558168718778,1.5681326136739762,-0.001457925633203579,1.5720389388674438,-0.003906325193467675,5634987.339722582,4167146.907606813
3.700000000000002,-0.11207016123309159,54.28170943215912,-0.031631265673613684,27.97797899095908,1.5679826991271393,-0.0014991454683692814,1.5719269035319356,-0.00394420440479637,5632109.2320565665,4164268.7999407975
3.800000000000002,-0.11498907411082422,57.15683930497499,-0.029189128777326375,28.75129872815867,1.5678286676995121,-0.0015403142762720715,1.5718115546294726,-0.003982886929960516,5629231.124390551,4161390.692274782
3.900000000000002,-0.11763628018497219,60.10939358430189,-0.026472060741479713,29.525542793269068,1.5676705245293951,-0.001581431701169337,1.5716929082340108,-0.004022383704615606,5626353.016480395,4158512.5843646256
4.000000000000002,-0.11998353302974689,63.13946484995828,-0.02347252844774704,30.300712656563878,1.5675082747915807,-0.0016224973781436849,1.5715709793259645,-0.004062704534383732,5623474.908814379,4155634.47669861
4.100000000000001,-0.12200183239446791,66.24714582893641,-0.020182993647210136,31.076809789781365,1.5673419236987287,-0.0016635109285199998,1.5714457818369703,-0.004103858138241545,5620596.801148363,4152756.3690325944
4.200000000000001,-0.12366139060811945,69.43252940980412,-0.016595582136515435,31.853835808677044,1.567171477051724,-0.0017044664700467337,1.5713173183870761,-0.004145841335352118,5617718.693970629,4149878.26185486
4.300000000000001,-0.12493155914160718,72.69570871407625,-0.01270168533487733,32.63179304272133,1.5669969424409453,-0.001745346107786286,1.571185569417169,-0.004188626976223686,5614840.586060473,4147000.1539447038
4.4,-0.12578089154396335,76.03677696831767,-0.008493324023561738,33.41068254241416,1.5668183282149715,-0.0017861422597380944,1.5710505366222423,-0.004232208407270788,5611962.4781503165,4144122.0460345475
4.5,-0.12617715527801096,79.45582756123733,-0.0039626373404760135,34.19050592919663,1.566635643286396,-0.0018268492857545276,1.570912225557288,-0.004276582270892115,5609084.36999602,4141243.9378802506
4.6,-0.12608732942925055,82.95295404387818,0.0008982584876040135,34.9712648264085,1.5664488971727348,-0.0018674611366111817,1.5707706411786666,-0.004321744005931771,5606206.262085863,4138365.8299700944
4.699999999999999,-0.1254776417639859,86.52825012978359,0.0060968766526465126,35.75296085905408,1.5662580993955744,-0.0019079777716038417,1.570625798915609,-0.004367699520034574,5603328.154175707,4135487.722059938
4.799999999999999,-0.12431356735415632,90.18180969518393,0.01164074409829589,36.5355956540034,1.5660632595099062,-0.0019483988566806013,1.5704777130294436,-0.004414453519537398,5600450.046265551,4132609.614149782
4.899999999999999,-0.12255967626300483,93.91372677917474,0.017538910911514886,37.319170839908146,1.565864389615182,-0.001988698947240872,1.5703263562884384,-0.004461966673256379,5597571.938111254,4129731.505995485
4.999999999999998,-0.12017970545722792,97.72409558391193,0.02379970805776913,38.103688047371904,1.5656615031811567,-0.002028864340252541,1.5701717230837495,-0.004510219902592816,5594693.829956957,4126853.397841188
5.099999999999998,-0.11713664164751937,101.61301046048811,0.030430638097085478,38.88914876576178,1.565454613712455,-0.0020688946870184295,1.5700138300611812,-0.004559216348726247,5591815.72180266,4123975.2896868913
5.1999999999999975,-0.11339272175716564,105.58056592339484,0.03743919890353737,39.67555462906728,1.5652437347536172,-0.00210878958837739,1.5698526931610117,-0.004608958407394503,5588937.613892504,4121097.181776735
5.299999999999997,-0.10890940146491009,109.62685663637784,0.04483320292255548,40.462907129829986,1.5650288804238335,-0.0021485432978370846,1.5696883197890785,-0.004659439365245044,5586059.505738207,4118219.073622438
5.399999999999997,-0.10364736357037656,113.75197745557301,0.052620378945335236,41.25120819195171,1.5648100653001082,-0.0021881512372531596,1.569520719298514,-0.004710653998405867,5583181.39758391,4115340.9654681413
5.4999999999999964,-0.09756653135848804,117.95602335807678,0.06080832211888515,42.04045902503763,1.5645873042247123,-0.002227610753960581,1.569349903965018,-0.004762599740305795,5580303.289429613,4112462.8573138444
5.599999999999996,-0.09062598589466321,122.23908951373673,0.06940545463824832,42.830661556599516,1.5643606136753714,-0.0022669054934098174,1.569175866326498,-0.0048152526511267,5577425.180787035,4109584.7486712663
5.699999999999996,-0.08278405790540033,126.60127121367593,0.07841927989262878,43.62181699939199,1.5641300102912448,-0.002306033841265568,1.5689986209492957,-0.004868610658050887,5574547.072632738,4106706.6405169694
5.799999999999995,-0.0739982910827918,131.04266394212564,0.08785766822608534,44.413927284497255,1.563895511498253,-0.0023449879299189324,1.5688181735668574,-0.0049226620686044775,5571668.96399016,4103828.5318743913
5.899999999999995,-0.06422546123223515,135.56336331924535,0.09772829850556645,45.20699377119712,1.56365713522708,-0.0023837627117277477,1.5686345341581043,-0.004977398931024224,5568790.855347582,4100950.423231813
5.999999999999995,-0.05342158317065872,140.16346511560508,0.1080387806157643,46.00101796359732,1.56341489982656,-0.0024223540052009072,1.568447713943448,-0.005032814116888051,5565912.747193285,4098072.3150775163
6.099999999999994,-0.04154187878665136,144.84306528106987,0.11879704384007356,46.7960016546478,1.5631688246270175,-0.0024607519954261674,1.5682577169897416,-0.00508889236272414,5563034.638550707,4095194.206434938
6.199999999999994,-0.02854079873719209,149.60225993065086,0.13001080049459265,47.59194649580979,1.5629189296105288,-0.002498950164885725,1.568064552058598,-0.005145622448069265,5560156.529663988,4092316.0975482194
6.299999999999994,-0.0143720626244222,154.44114528712208,0.14168736112769892,48.38885356471231,1.5626652348034349,-0.0025369480709398796,1.5678682360103333,-0.005203001206898428,5557278.42077727,4089437.9886615006
6.399999999999993,0.0010113963395788801,159.35981776747033,0.1538345896400108,49.18672480348236,1.5624077612057479,-0.002574735976870386,1.5676687738083515,-0.0052610126026035875,5554400.3121346915,4086559.8800189225
6.499999999999993,0.017657395975985538,164.35837393990096,0.16645999636406658,49.985561724306166,1.562146530258693,-0.002612309470547795,1.567466177542189,-0.005319647283495987,5551522.203492113,4083681.7713763444
6.5999999999999925,0.035614520483431465,169.43691049517795,0.17957124507445926,50.78536555276987,1.5618815641429415,-0.002649661157514562,1.5672604558847802,-0.005378891741838698,5548644.094849535,4080803.6627337663
6.699999999999992,0.05493212826686253,174.59552434765945,0.19317607783431065,51.586138524814814,1.5616128859332434,-0.0026867820969813973,1.5670516159016747,-0.005438729968431311,5545765.9859628165,4077925.5538470475
6.799999999999992,0.07566029171252,179.83431250574432,0.2072816344565747,52.387881580848855,1.5613405186815708,-0.00272367251672628,1.5668396760098293,-0.005499157328258564,5542887.877076098,4075047.4449603288
6.8999999999999915,0.09784985692395914,185.15337217295595,0.22189565211439136,53.19059667211624,1.5610644864253627,-0.002760322562080478,1.5666246427232196,-0.005560156297856889,5540009.767945238,4072169.3358294694
6.999999999999991,0.12155238828433766,190.55280067597144,0.23702531360378512,53.99428503015483,1.5607848133424145,-0.002796730829482927,1.5664065327462524,-0.0056217194038379326,5537131.658814379,4069291.22669861
7.099999999999991,0.1468202253260507,196.03269550806436,0.25267837041713065,54.7989483209292,1.560501524717749,-0.002832886246655084,1.5661853518142166,-0.005683827096467642,5534253.54968352,4066413.1175677506
7.19999999999999,0.17370641492737843,201.59315428591842,0.268861896013277,55.60458777854046,1.5602146458986434,-0.0028687881910555023,1.565961117840232,-0.005746471941588505,5531375.440796801,4063535.008681032
7.29999999999999,0.20226473466524386,207.23427480757792,0.2855831973786544,56.41120521659502,1.559924202724743,-0.0029044317390040882,1.5657338439678377,-0.0058096412430945765,5528497.331421801,4060656.899306032
7.39999999999999,0.23254974187910377,212.95615502372968,0.3028500721385989,57.21880216151766,1.5596302223824676,-0.002939803422754503,1.565503534343569,-0.005873311961101413,5525619.222535082,4057778.790419313
7.499999999999989,0.26461669773709373,218.7588930233534,0.3206695585798996,58.02737999623733,1.5593327322312474,-0.002974901512203681,1.5652702062912502,-0.00593747406000289,5522741.113404223,4054900.6812884538
7.599999999999989,0.2985215641380187,224.64258704836172,0.33904866400925004,58.836940250083195,1.559031759811367,-0.0030097241988033463,1.565033877052222,-0.006002117240855087,5519863.004273363,4052022.5721575944
7.699999999999989,0.334321033555545,230.6073355082388,0.3579946941752625,59.64748459877075,1.5587273333821954,-0.003044264291715527,1.5647945582693028,-0.006067224887107425,5516984.894898363,4049144.4627825944
7.799999999999988,0.37207249776981033,236.65323695122677,0.3775146421426534,60.45901442987962,1.558419481490012,-0.0030785189218333823,1.5645522664265132,-0.006132784936501157,5514106.785523363,4046266.3534075944
7.899999999999988,0.4118340763799362,242.78039004994181,0.39761578610125825,61.27153098715036,1.558108233484516,-0.003112480054961596,1.5643070127803642,-0.006198779295848222,5511228.676148363,4043388.2440325944
7.999999999999988,0.45366460318928076,248.9888936450352,0.4183052680934456,62.08503595093402,1.5577936193627715,-0.003146141217444156,1.564058810545877,-0.006265191183105534,5508350.566773363,4040510.1346575944
8.099999999999987,0.4976236177813905,255.27884673085117,0.4395901459210978,62.89953085815976,1.557475669708004,-0.0031794965476747814,1.5638076738878428,-0.006332004179838702,5505472.457398363,4037632.0252825944
8.199999999999987,0.5437713309677452,261.65034847011674,0.4614771318635473,63.71501739265545,1.5571544151908596,-0.0032125451714437917,1.5635536219896689,-0.006399206798809232,5502594.347535082,4034753.915419313
8.299999999999986,0.5921686489991551,268.1034981505205,0.4839731803140987,64.53149680403764,1.5568298870391453,-0.003245281517142685,1.5632966695642263,-0.0064667825250810385,5499716.23742766,4031875.8053118913
8.399999999999986,0.642877155097786,274.6383951848193,0.5070850609863089,65.3489703429874,1.5565021168056026,-0.003277702335425832,1.5630368337052274,-0.006534716899624815,5496838.127564379,4028997.69544861
8.499999999999986,0.6959591430256006,281.2551391691506,0.5308198792781463,66.16743984331322,1.5561711369828028,-0.003309798227997992,1.5627741259452015,-0.006602988962398637,5493960.017701098,4026119.5855853288
8.599999999999985,0.7514775815562608,287.9538298250049,0.5551843853066015,66.9869065585431,1.5558369805112342,-0.003341564715686101,1.5625085627758106,-0.0066715822645764256,5491081.9078378165,4023241.4757220475
8.699999999999985,0.8094960884332676,294.73456704304886,0.5801850687700686,67.80737218043971,1.5554996804256258,-0.0033730008560847206,1.562240164065133,-0.0067404836395073,5488203.797730395,4020363.3656146256
8.799999999999985,0.8700789249996992,301.5974508104326,0.6058283656643159,68.62883767383724,1.555159269857496,-0.00340410568129784,1.5619689497007754,-0.006809679843279293,5485325.687622973,4017485.2555072038
8.899999999999984,0.9332910710302593,308.54258128377256,0.6321214603056009,69.45130473339964,1.5548157833074978,-0.0034348654999820103,1.5616949282162451,-0.006879144908747303,5482447.5777596915,4014607.1456439225
8.999999999999984,0.9991981866318531,315.57005877474586,0.6590711560159376,70.27477490973313,1.5544692561208082,-0.0034652718668963774,1.5614181134205367,-0.006948857299728495,5479569.46765227,4011729.0355365006
9.099999999999984,1.0678665606052693,322.6799837502756,0.6866837397341629,71.0992497552972,1.5541197237356312,-0.0034953238517691247,1.5611385260128348,-0.0070188022772035286,5476691.357300707,4008850.925184938
9.199999999999983,1.139363111877921,329.8724567888733,0.7149655127265165,71.92473038597728,1.5537672217926826,-0.003525019429486989,1.560856185747291,-0.0070889639546083405,5473813.247193285,4005972.8150775163
9.299999999999983,1.2137553987033578,337.1475786245659,0.7439228682543665,72.7512183569256,1.5534117863707366,-0.003554354219458989,1.5605711105317082,-0.007159324160971536,5470935.137085863,4003094.7049700944
