time[s],x[m],y[m],vx[m/s],vy[m/s],theta[rad],theta_dot[rad/s],gamma[rad],alpha[rad],mass[kg],mass_propellant[kg]
435.8000000000306,28053.947998649684,51328.65972336798,-20.829879246563014,-1536.1886478223669,1.5243747541711192,0.0018802723310310044,4.698830357339649,-3.1744556031685294,960128.5846712958,513293.94065758405
435.9000000000306,28051.88617471885,51175.308334713576,-20.618239308353843,-1533.5138865440354,1.5246446114585193,0.0026985728740008975,4.698944695834215,-3.174300084375696,959157.7281235105,512323.0841097988
436.00000000003064,28049.849621118155,51022.259236853126,-20.36553600692304,-1530.4909786045248,1.5250410154350094,0.003964039764900795,4.699083227904893,-3.1740422124698835,958094.5936406599,511259.9496269482
436.10000000003066,28047.8433072767,50869.56018982266,-20.063138414548764,-1526.9904703046427,1.5256144208443732,0.005734054093638694,4.699250729425715,-3.1736363085813415,956904.9215669107,510070.277553199
436.2000000000307,28045.872200050908,50717.25941186376,-19.711072257931125,-1523.0077795890027,1.5264167982100911,0.008023773657179961,4.699447502281858,-3.173030704071767,955587.9367986501,508753.2927849383
436.3000000000307,28043.938914082344,50565.37550677251,-19.332859685622743,-1518.839050912471,1.5274851678109986,0.010683696009075495,4.699660959155553,-3.1721757913445545,954223.0128305162,507388.36881680443
436.40000000003073,28042.044198033465,50413.91078538414,-18.947160488779776,-1514.6472138836878,1.5288394912884788,0.013543234774802243,4.699880343317703,-3.1710408520292246,952853.7923766952,506019.1483629834
436.50000000003075,28040.187492228397,50262.85634385902,-18.567058050692065,-1510.544415251177,1.5304879759207632,0.016484846322843374,4.700097966042674,-3.1696099901219106,951510.1662885178,504675.52227480605
436.6000000000308,28038.366680965755,50112.19310212417,-18.20811262640814,-1506.6324173485386,1.5324214062612516,0.019334303404884026,4.700304263479039,-3.167882857217787,950219.1713661248,503384.5273524131
436.7000000000308,28036.577958829548,49961.8773753613,-17.88722136206077,-1503.1572676286842,1.5346191609471003,0.021977546858487032,4.700489774948531,-3.165870614001431,949045.7120330527,502211.0680193411
436.8000000000308,28034.8176683959,49811.866543863456,-17.60290433649466,-1500.108314978436,1.5370613764034189,0.024422154563186513,4.700655096721926,-3.1635937203185067,947986.5263501379,501151.8823364263
436.90000000003084,28033.07967304994,49662.081771230856,-17.37995345958624,-1497.847726326012,1.5397054112872837,0.026440348838647033,4.700786216481017,-3.161080805193733,947136.7874702716,500302.1434565599
437.00000000003087,28031.3612823564,49512.492453257844,-17.183906935389807,-1495.8931797301314,1.5425361580960777,0.028307468087941323,4.70090209658532,-3.1583659384892426,946368.6366372237,499533.992623512
437.1000000000309,28029.662621099378,49363.11393864425,-16.98661257023005,-1493.7851461359444,1.545562248414384,0.030260903183062862,4.701017947219299,-3.1554556988049147,945560.8321535211,498726.1881398094
437.2000000000309,28027.983271156078,49213.96360911078,-16.793499433010123,-1491.5032953347302,1.548784807217251,0.032225588028669934,4.701130011079267,-3.1523452038620166,944708.2332497304,497873.5892360188
437.30000000003093,28026.322467279213,49065.06292365555,-16.60803876863829,-1489.0068545523889,1.5522004986794553,0.03415691462204272,4.701235673700502,-3.149035175021047,943800.3116583781,496965.6676446665
437.40000000003096,28024.67799525132,48916.42855098684,-16.444720278932994,-1486.3437266870246,1.5557866741380086,0.03586175458553402,4.7013255574110495,-3.1455388832730407,942849.9319513866,496015.2879376751
437.500000000031,28023.04723694031,48768.09773514767,-16.30758311008566,-1483.3081583917415,1.5595117054111816,0.03725031273172915,4.701395360457424,-3.141883655046242,941803.3026200075,494968.658606296
437.600000000031,28021.424858055496,48620.02391955912,-16.223788848146274,-1480.7381558855152,1.5633199628901364,0.038082574789548636,4.701432863916974,-3.1381129010268376,940880.0272894796,494045.383275768
437.700000000031,28019.807033289133,48472.20563180984,-16.17824766364641,-1478.1828774928242,1.5671702938961698,0.03850331006033277,4.701444731212479,-3.13427443731631,939961.7462349809,493127.1022212693
437.80000000003105,28018.19000443432,48324.64009024426,-16.170288548144534,-1475.655415655769,1.5710229053988043,0.038526115026344045,4.701431380671368,-3.1304084752725636,939051.7534452957,492217.1094315842
437.90000000003107,28016.570707216695,48177.26238335856,-16.192972176232278,-1473.7770688570304,1.5748491108334741,0.03826205434669925,4.701402026560461,-3.126552915726987,938312.0371263546,491477.39311264316
438.0000000000311,28014.948894946414,48029.91933869862,-16.218122702817904,-1473.4304465993964,1.5786528047863106,0.03803693952836613,4.701382374800998,-3.1227295700146875,937972.2516957733,491137.6076820618
438.1000000000311,28013.32482022412,47882.551973752095,-16.240747222943263,-1473.6736494652832,1.582438962597707,0.03786157811396452,4.701368840491974,-3.118929877894267,937786.3278262073,490951.6838124957
438.20000000003114,28011.698249569385,47735.14879979706,-16.265706547334965,-1474.0317395503191,1.5862061733245914,0.03767210726884162,4.701354586791625,-3.115148413467034,937630.3789746206,490795.7349609091
438.30000000003116,28010.068924679505,47587.70408124299,-16.293248898803036,-1474.4471855407376,1.5899526165369844,0.03746443212393108,4.701339018128394,-3.1113864015914094,937489.3957952801,490654.75178156863
438.4000000000312,28008.436415418288,47440.21781375583,-16.32509261215206,-1474.86267487163,1.5936747367666808,0.037221202296963726,4.701320542474677,-3.107645805707996,937348.4364459859,490513.79243227444
438.5000000000312,28006.80012827615,47292.692873622575,-16.36287142137367,-1475.249401332543,1.597367360090863,0.0369262332418232,4.701297838473282,-3.103930478382419,937199.9877879339,490365.3437742224
438.60000000003123,28005.159650461832,47145.127788078484,-16.404778143194676,-1475.6508554409043,1.6010279776472396,0.03660617556376576,4.701272460290556,-3.1002444826433164,937055.3973577241,490220.7533440127
438.70000000003125,28003.514407466566,46997.52361692257,-16.4524299526743,-1476.0417115591388,1.6046527162005184,0.03624738553278791,4.7012431241921,-3.096590407991582,936908.0552738544,490073.411260143
438.8000000000313,28001.863868577,46849.880878679156,-16.505388895684405,-1476.4273824341537,1.6082382927947716,0.035855765942531606,4.701210170271866,-3.092971877477094,936759.3735113641,489924.7294976527
438.9000000000313,28000.208075247632,46702.193561292544,-16.557933293647665,-1476.8731738661452,1.611786948111256,0.03548655316484225,4.701177970613098,-3.089391022501842,936626.4115614588,489791.7675477474
439.0000000000313,27998.54706870227,46554.45669501131,-16.610065453595286,-1477.3686628123373,1.6153009547106434,0.03514006599387561,4.701146447590697,-3.085845492880054,936506.4572333937,489671.81321968226
439.10000000003134,27996.88077352117,46406.66721744511,-16.662951811021916,-1477.8947756619993,1.6187815181597096,0.03480563449066189,4.701114669067245,-3.082333150907535,936394.5328246679,489559.88881095644
439.20000000003137,27995.209000910363,46258.823631501495,-16.7177261080596,-1478.435859436161,1.6222287920360376,0.03447273876328091,4.701081750840466,-3.078852958804428,936286.5377307836,489451.8937170721
439.3000000000314,27993.53154580919,46110.92478701141,-16.77455101174796,-1478.9884449008598,1.6256427066945365,0.03413914658498894,4.701047558591564,-3.0754048518970274,936181.5464321587,489346.9024184472
439.4000000000314,27991.84812863989,45962.97035895826,-16.834171692999377,-1479.5442805315715,1.6290226756082946,0.03379968913758153,4.701011527520497,-3.0719888519122023,936077.3981886132,489242.7541749018
439.50000000003143,27990.15844778325,45814.96030128626,-16.89680856639094,-1480.1005767199886,1.6323680955690647,0.033454199607701574,4.700973489528596,-3.068605393959531,935973.3865646945,489138.74255098304
439.60000000003146,27988.46220619869,45666.894659357786,-16.962415845636276,-1480.6564192846945,1.6356784511526385,0.03310355583573881,4.700933470765466,-3.0652550196128274,935869.3034954299,489034.65948171855
439.7000000000315,27986.759112766566,45518.77349453416,-17.030934321232305,-1481.2116482362508,1.6389533698687304,0.0327491871609182,4.700891512156512,-3.061938142287782,935765.1138180634,488930.469804352
439.8000000000315,27985.048894171032,45370.59677852511,-17.10218595532113,-1481.7671600904337,1.642192715907472,0.032393460387416285,4.700847742954675,-3.058655027047203,935661.0573112378,488826.41329752636
439.9000000000315,27983.331282429634,45222.36448556249,-17.176117414000796,-1482.3229296262716,1.6453964820235558,0.03203766116083668,4.700802201004296,-3.05540571898074,935557.1287341347,488722.48472042324
440.00000000003155,27981.606015124,45074.07659046327,-17.252673056314592,-1482.878950992139,1.6485647908812449,0.031683088576889375,4.700754925799453,-3.052190134918208,935453.3310879065,488618.68707419507
440.10000000003157,27979.872834014175,44925.73307460378,-17.331811098274386,-1483.4351585949769,1.6516978811818492,0.031330903006044325,4.70070594696583,-3.049008065783981,935349.6520991835,488515.0080854721
440.2000000000316,27978.13147796657,44777.33396037252,-17.41356047604401,-1483.9911423125734,1.6547960397601398,0.030981585782906374,4.700655243704906,-3.0458592039447665,935245.9886089494,488411.3445952379
440.3000000000316,27976.381687623143,44628.879268365235,-17.497903434271084,-1484.5469200728012,1.6578596266157761,0.030635868556362505,4.700602830038446,-3.0427432034226696,935142.3498894213,488307.7058757098
440.40000000003164,27974.623207510504,44480.36899968258,-17.584801126410703,-1485.102686826603,1.6608890864365735,0.03029459820797399,4.7005487355795585,-3.039659649142985,935038.7913947296,488204.1473810182
440.50000000003166,27972.855782056366,44331.80315925455,-17.674254541396433,-1485.6584042802622,1.663884917135817,0.02995830699243442,4.700492961248009,-3.036608044112192,934935.3071673629,488100.6631536515
440.6000000000317,27971.07915549585,44183.181752180455,-17.766265605166517,-1486.2140707409771,1.6668476673112655,0.02962750175448546,4.700435507620432,-3.033587840309166,934831.9018658263,487997.257852115
440.7000000000317,27969.293070255255,44034.504787412465,-17.860852405926845,-1486.7696476799222,1.6697779324877067,0.0293026517644122,4.700376364105518,-3.030598431617811,934728.5808205251,487893.9368068138
440.80000000003173,27967.49726700688,43885.77227803835,-17.95803248376592,-1487.32509374114,1.6726763435063647,0.028984110186581206,4.700315520466999,-3.0276391769606343,934625.3376260144,487790.6936123031
440.90000000003175,27965.691484333674,43736.984240560196,-18.057826732027564,-1487.8803747815034,1.675543564429512,0.028672209231473067,4.700252964282124,-3.024709399852612,934522.1663695759,487687.52235586464
441.0000000000318,27963.87545840878,43588.14069452783,-18.160259248948503,-1488.43546032367,1.678380290636074,0.02836726206562147,4.70018868101743,-3.0218083903813557,934419.0615416312,487584.41752792004
441.1000000000318,27962.048922776914,43439.24166274697,-18.265356318655847,-1488.9903178085317,1.6811872471507858,0.028069565147117764,4.700122654670012,-3.0189354075192263,934316.0192003683,487481.3751866571
441.2000000000318,27960.21160816934,43290.28717054237,-18.373146075743797,-1489.5449220460207,1.6839651878075292,0.027779406567433572,4.700054868072843,-3.0160896802653134,934213.0374196743,487378.39340596314
441.30000000003184,27958.363242022693,43141.27724679451,-18.483661466463378,-1490.0992374785885,1.6867148928390303,0.027497050315010905,4.699985300763707,-3.0132704079246766,934110.1116306306,487275.46761691937
441.40000000003187,27956.50354819868,42992.211923881216,-18.596938240098982,-1490.6532291329631,1.6894371678610418,0.027222750220115322,4.699913930427474,-3.0104767625664324,934007.2375778717,487172.59356416046
441.5000000000319,27954.632246714325,42843.09123693751,-18.713014843578836,-1491.2068694370992,1.692132841906679,0.02695674045637127,4.699840733027271,-3.007707891120592,933904.4130217315,487069.76900802035
441.6000000000319,27952.74905336505,42693.91522415052,-18.831933492760815,-1491.7601278698294,1.694802765770242,0.026699238635629112,4.69976568200349,-3.0049629162332483,933801.6350506444,486966.99103693326
441.70000000003193,27950.853679404667,42544.68392711813,-18.95373960381734,-1492.312970323919,1.6974478116195215,0.02645045849279401,4.699688748652912,-3.002240937033391,933698.8999467647,486864.2559330536
441.80000000003196,27948.94583096679,42395.39739067215,-19.07848437877488,-1492.8653644597973,1.7000688750167672,0.02621063397245605,4.6996099004454805,-2.999541025428713,933596.2046193534,486761.5606056423
441.900000000032,27947.025205456757,42246.05566862666,-19.206255100307743,-1493.4172204549293,1.7026668872063195,0.025980121895523862,4.69952908023906,-2.99686219303274,933493.546067258,486658.9020535469
442.000000000032,27945.091494289827,42096.658819763325,-19.3371116692979,-1493.968488633331,1.7052428030383568,0.025759158320372635,4.699446249626369,-2.9942034465880125,933390.9192288333,486556.2752151222
442.100000000032,27943.144381017573,41947.20690796216,-19.471132722551875,-1494.5191180116678,1.7077976085199105,0.02554805481553632,4.699361357696326,-2.9915637491764153,933288.3172954946,486453.6732817835
442.20000000003205,27941.18354344804,41797.69999866421,-19.60837569531863,-1495.0690929794566,1.7103323153894823,0.025347068695718646,4.699274368085934,-2.988942052696452,933185.7429100479,486351.09889633674
442.30000000003207,27939.20865304643,41648.13816066249,-19.748904016105456,-1495.6183800171646,1.7128479597087662,0.025156443192840265,4.699185240312898,-2.986337280604132,933083.1941911735,486248.55017746246
442.4000000000321,27937.219374615266,41498.52146629,-19.89278431162421,-1496.1669437248759,1.715345602563065,0.024976428542987095,4.699093931787641,-2.9837483292245763,932980.6689887923,486146.02497508127
442.5000000000321,27935.215366014174,41348.84999137371,-20.040086010926068,-1496.7147491629546,1.7178263311003887,0.024807285373238435,4.699000398101353,-2.981174067000964,932878.1655111714,486043.5214974604
442.60000000003214,27933.196277836698,41199.12381534429,-20.190881774768382,-1497.2617602942091,1.7202912594617374,0.024649283613487928,4.69890459272805,-2.978613333266313,932775.6819217848,485941.03790807363
442.70000000003216,27931.16175310113,41049.34302123157,-20.34524735567598,-1497.8079411271954,1.7227415299111253,0.02450270449387839,4.698806467131185,-2.9760649372200594,932673.216652866,485838.57263915485
442.8000000000322,27929.111426899508,40899.507695799104,-20.503262016224127,-1498.353254324696,1.7251783138779402,0.024367839668148126,4.698705970474773,-2.9735276565968327,932570.7680470623,485736.1240333512
442.9000000000322,27927.044926070175,40749.61792951419,-20.665008293329,-1498.8976628491364,1.7276028132484267,0.02424499370486436,4.6986030497987255,-2.9710002365502985,932468.3348053675,485633.6907916564
443.00000000003223,27924.96186883853,40599.67381664166,-20.83057231644963,-1499.441128725308,1.7300162616030648,0.024134483546381393,4.698497649798365,-2.9684813881953005,932365.9157631552,485531.2717494441
443.10000000003225,27922.86186441853,40449.675455386525,-21.00004420000677,-1499.9836125513534,1.7324199254485864,0.024036638455217058,4.698389712561369,-2.9659697871127824,932263.5096214191,485428.865607708
443.2000000000323,27920.74463928912,40299.622944538845,-21.17225129410079,-1500.525108476768,1.7348145260686145,0.02394600620028233,4.69828002193588,-2.9634654958672657,932161.1152603263,485326.4712466151
443.3000000000323,27918.609910063144,40149.5163541565,-21.347292259789736,-1501.0659038234603,1.7372008466404698,0.023863205718553167,4.698168516629638,-2.960967669989168,932058.7318288035,485224.08781509235
443.4000000000323,27916.457388617164,39999.35575694794,-21.52521445979605,-1501.605972085563,1.739579685042301,0.023788384018312774,4.698055166679669,-2.958475481637368,931956.3581622246,485121.7141485134
443.50000000003234,27914.286781958654,39849.141228195615,-21.706066585102477,-1502.1452875232021,1.7419518544602048,0.023721694179037054,4.697939941277121,-2.955988086816916,931853.9934543098,485019.3494405985
443.60000000003237,27912.097792045282,39698.87284586598,-21.889899133699675,-1502.683823296354,1.7443181837995676,0.023663293393628142,4.697822808432032,-2.9535046246324645,931751.6367643991,484916.99275068793
443.7000000000324,27909.89011563624,39548.55069056964,-22.076764090426483,-1503.2215529634248,1.746679518277861,0.023613344782932442,4.697703735202161,-2.9510242169243,931649.2874205931,484814.64340688183
443.8000000000324,27907.663444102367,39398.17484567434,-22.266715338732574,-1503.7584489529802,1.7490367198580468,0.023572015801857752,4.697582687405592,-2.948545967547545,931546.9446166118,484712.3006029005
443.90000000003243,27905.41746325219,39247.745397335566,-22.459808501789418,-1504.2944833876816,1.7513906677922007,0.023539479341539847,4.697459629735792,-2.946068961943591,931444.6076357621,484609.9636220508
444.00000000003246,27903.15185316153,39097.262434495155,-22.656100906599367,-1504.8296284041123,1.7537422592119016,0.023515914197010736,4.697334525790043,-2.9435922665781415,931342.2759405242,484507.63192681293
444.1000000000325,27900.866287964564,38946.72604901593,-22.855651969652996,-1505.3638547922524,1.7560924095822585,0.02350150370356974,4.697207337801034,-2.9411149282187754,931239.9488142049,484405.3048004937
444.2000000000325,27898.560435672807,38796.136335683645,-23.058522917556576,-1505.8971333228596,1.758442053309113,0.02349643726854385,4.6970780268371435,-2.9386359735280303,931137.6257192844,484302.9817055733
444.3000000000325,27896.23395798076,38645.49339224437,-23.26477692047825,-1506.429434392744,1.7607921443251107,0.02350091015997693,4.696946552711728,-2.936154408386617,931035.3062078296,484200.6621941184
444.40000000003255,27893.886510052824,38494.79731949397,-23.474479279350785,-1506.9607275040069,1.7631436566295688,0.02351512304458283,4.696812873855014,-2.933669217225445,930932.9897871139,484098.3457734027
444.50000000003257,27891.517740303916,38344.04822136931,-23.687697489066267,-1507.4909812466128,1.7654975848360002,0.023539282064313598,4.6966769472734295,-2.9311793624374296,930830.6759196174,483996.0319059062
444.6000000000326,27889.127290191693,38193.24620497441,-23.904501122250302,-1508.020163948952,1.7678549448077006,0.023573599717003728,4.696538728634942,-2.9286837838272417,930728.3642022003,483893.7201884891
444.7000000000326,27886.71479397982,38042.39138069214,-24.124962118719413,-1508.5482428226978,1.7702167742022588,0.023618293945582777,4.696398172069712,-2.926181397867453,930626.054142136,483791.4101284249
444.80000000003264,27884.279878544494,37891.48386211397,-24.34915435327206,-1509.0751857816815,1.7725841332358245,0.023673590335658686,4.696255230477328,-2.9236710972415034,930523.745649838,483689.1016361268
444.90000000003266,27881.82216308391,37740.52376630624,-24.577154605826337,-1509.600958077293,1.7749581050854708,0.023739718496462798,4.696109854849792,-2.921151749764321,930421.438142993,483586.7941292818
445.0000000000327,27879.341258897155,37589.51121379414,-24.809041867556907,-1510.1255251210048,1.7773397966132403,0.023816915277694195,4.695961994762834,-2.918622198149594,930319.1313080478,483484.4872943366
445.1000000000327,27876.836769137997,37438.4463286148,-25.044897591578334,-1510.6488517934072,1.779730339025176,0.02390542411935709,4.695811598204143,-2.9160812591789673,930216.8249210358,483382.1809073246
445.20000000003273,27874.308288533284,37287.32923847275,-25.28480604711597,-1511.1709014205444,1.7821308884295262,0.02400549404350168,4.695658611329353,-2.9135277228998273,930114.5185788171,483279.87456510594
