time[s],x[m],y[m],vx[m/s],vy[m/s],theta[rad],theta_dot[rad/s],gamma[rad],alpha[rad],mass[kg],mass_propellant[kg]
435.8000000000306,28053.951452402493,51328.80035637023,-20.795341718493237,-1534.782317799819,1.52432097622853,0.001342492905138536,4.698840434090806,-3.1745194578622757,959753.0828055614,512918.43879184965
435.9000000000306,28051.89265231904,51175.712077023105,-20.588000834556492,-1530.8827934712526,1.524430656286473,0.001096800579429005,4.6989413409772025,-3.1745106846907296,958456.5215964402,511621.87758272846
436.00000000003064,28049.853901597395,51023.014512907845,-20.387507216430677,-1526.9756411526164,1.5245044762228528,0.0007381993637998229,4.699038213455198,-3.1745337372323457,957159.7752117333,510325.1311980215
436.10000000003066,28047.83457452152,50870.708116203605,-20.19327075875564,-1523.0639670423948,1.5245321587745624,0.0002768255170954388,4.6991314363098855,-3.1745992775353233,955863.665698453,509029.02168474125
436.2000000000307,28045.834097065763,50718.79347865554,-20.00477455755897,-1519.1463754806257,1.5245038637354862,-0.0002829503907616918,4.699221310254808,-3.174717446519322,954567.8175989893,507733.1735852777
436.3000000000307,28043.851935858016,50567.27107096007,-19.821612077449345,-1515.2240769546565,1.5244101195252633,-0.0009374421022286775,4.699308089043807,-3.174897969518544,953272.5497074024,506437.9056936907
436.40000000003073,28041.887507035794,50416.13973821279,-19.64428822222759,-1511.3133274728334,1.5242413782550377,-0.0016874127022548386,4.6993915551236505,-3.1751501768686126,951982.1710067154,505147.5269930038
436.50000000003075,28039.940507863823,50265.401617613825,-19.46999171969789,-1507.3812059896575,1.5239896927192542,-0.002516855357834002,4.699473263380545,-3.175483570661291,950687.9372585119,503853.2932448003
436.6000000000308,28038.010789065236,50115.059358259954,-19.29718798586483,-1503.4225935387324,1.5236486463781078,-0.003410463411463301,4.699554180352344,-3.1759055339742357,949388.5026922798,502553.8586785681
436.7000000000308,28036.09818180245,49965.114218722236,-19.126072627871633,-1499.4513953771716,1.5232118626262394,-0.004367837518683298,4.699634291890505,-3.1764224292642655,948087.5611443759,501252.91713066434
436.8000000000308,28034.20254831311,49815.56741896616,-18.956334893360292,-1495.4679975607528,1.5226727378374143,-0.005391247888252058,4.699713804628354,-3.17704106679094,946785.2230751283,499950.5790614166
436.90000000003084,28032.32376657904,49666.42010247345,-18.787817340696844,-1491.4731649270757,1.5220243810620746,-0.006483567753398025,4.699792827716468,-3.177768446654394,945481.6986995883,498647.0546858767
437.00000000003087,28030.461034981454,49517.6621713319,-18.62731597587093,-1487.5793114155654,1.5212568077922486,-0.00767573269825927,4.699867737080416,-3.1786109292881672,944206.5725723634,497371.92855865177
437.1000000000309,28028.605912796047,49369.078612314064,-18.551221854050148,-1485.8355901782913,1.5204016772571751,-0.008551305350733661,4.699904249155881,-3.1795025718987056,943497.678727425,496663.0347137134
437.2000000000309,28026.753431482306,49220.523852056205,-18.524813137400717,-1485.5476025785729,1.5194953611874953,-0.009063160696797789,4.699919603447273,-3.180424242259778,943171.1681556321,496336.5241419205
437.30000000003093,28024.90299554364,49071.99593512683,-18.504359386636335,-1485.2791692936833,1.5185281132756552,-0.009672479118400133,4.69993111894188,-3.1814030056662244,942849.9366557983,496015.2926420867
437.40000000003096,28023.05411330515,48923.49386170076,-18.48882238492589,-1485.020734260725,1.5174911304363867,-0.010369828392685238,4.699939412009293,-3.1824482815729063,942531.4878513955,495696.8438376838
437.500000000031,28021.20641691346,48775.02014567444,-18.476963916875498,-1484.7371602631677,1.516374484788481,-0.011166456479056485,4.699945020154551,-3.18357053536607,942206.6108919904,495371.96687827865
437.600000000031,28019.35957575192,48626.576276142114,-18.46841161539507,-1484.438695323231,1.5151696025398256,-0.012048822486554808,4.69994827881049,-3.184778676270665,941877.9923913421,495043.34837763035
437.700000000031,28017.51330870305,48478.16338366276,-18.462670488681628,-1484.1289247935422,1.5138688831407106,-0.013007193991150195,4.699949550177892,-3.1860806670371815,941546.5721581018,494711.92814439005
437.80000000003105,28015.667377997528,48329.7814943537,-18.459307055221544,-1483.8188930905665,1.5124663094646738,-0.014025736760368206,4.699949217720295,-3.1874829082556215,941215.2411531553,494380.5971394436
437.90000000003107,28013.82158833892,48181.42908978923,-18.45789658606544,-1483.5240456447552,1.5109579216224769,-0.015083878421968414,4.699947696206079,-3.1889897745836024,940888.0378078722,494053.39379416045
438.0000000000311,28011.975794661845,48033.10457090051,-18.4579367707545,-1483.2451888871608,1.5093405923782246,-0.01617329244252363,4.699945330341981,-3.1906047379637563,940565.1684850785,493730.5244713668
438.1000000000311,28010.12989228651,47884.80544376615,-18.459023753360245,-1482.9912713436038,1.5076127085736455,-0.017278838045791358,4.699942467109322,-3.1923297585356765,940248.9678126232,493414.32379891153
438.20000000003114,28008.283811413352,47736.5284230344,-18.460808731587278,-1482.7702073174921,1.505774054234977,-0.018386543386684984,4.699939408042108,-3.194165353807131,939941.4976270352,493106.8536133236
438.30000000003116,28006.43751299289,47588.26985852278,-18.46298420464375,-1482.585645116223,1.5038253666918524,-0.019486875431244787,4.699936391272854,-3.196111024581002,939643.7034257174,492809.05941200576
438.4000000000312,28004.590983617836,47440.02593981584,-18.465293750506792,-1482.4391870694224,1.5017680798048372,-0.020572868870151965,4.6999336034479064,-3.1981655236430693,939355.995694656,492521.35168094444
438.5000000000312,28002.74423095661,47291.79281811506,-18.467526612256965,-1482.3312170078107,1.4996041485930993,-0.02163931211737954,4.69993119023286,-3.2003270416397607,939078.4666185041,492243.82260479254
438.60000000003123,28000.89727861439,47143.56670851496,-18.469523422192413,-1482.261096000917,1.4973358839069772,-0.02268264686122172,4.699929254027152,-3.2025933701201748,938810.9432950458,491976.2992813341
438.70000000003125,27999.050160070477,46995.34378350077,-18.471185439110023,-1482.2292501419206,1.4949660096694792,-0.02369874237498061,4.6999278652348995,-3.2049618555654202,938553.531929243,491718.88791553135
438.8000000000313,27997.202917432103,46847.120475752774,-18.472426383751046,-1482.2330774799984,1.4924972768619509,-0.024687328075284246,4.699927060325065,-3.207429783463114,938305.5470489168,491470.9030352052
438.9000000000313,27995.355597535196,46698.89340902378,-18.473198969083203,-1482.270667289938,1.4899324836267234,-0.025647932352274954,4.699926855185305,-3.209994371558582,938066.4844604551,491231.8404467435
439.0000000000313,27993.508250518706,46550.659471262836,-18.473470164907297,-1482.3393776094501,1.4872743553965644,-0.026581282301590816,4.699927249854877,-3.2126528944583126,937835.6500913613,491001.00607764965
439.10000000003134,27991.660929103626,46402.41584167727,-18.473214150791524,-1482.4362958556883,1.4845254815082287,-0.0274887388833576,4.699928237160985,-3.2154027556527565,937612.2884574968,490777.6444437852
439.20000000003137,27989.81369113683,46254.15992699772,-18.472379667962702,-1482.559146795448,1.4816883419256162,-0.028371395826126262,4.699929832381572,-3.2182414904559558,937395.8131695068,490561.1691557953
439.3000000000314,27987.96659437894,46105.88935909658,-18.47096757891808,-1482.705679011394,1.478765306600777,-0.029230353248390132,4.69993201578697,-3.2211667091861935,937185.635643164,490350.99162945256
439.4000000000314,27986.11970155981,45957.60222779695,-18.468928191297653,-1482.8713129962537,1.4757583398097038,-0.030069667910731596,4.699934782146075,-3.224176442336371,936980.5616885518,490145.91767484037
439.50000000003143,27984.273074256664,45809.29676184182,-18.466273031467484,-1483.0546595513151,1.4726693488144416,-0.030889909952623303,4.6999381117242685,-3.227268762909827,936780.2278078767,489945.5837941653
439.60000000003146,27982.426771903607,45660.97129829174,-18.463023530577193,-1483.2546355007946,1.4695002097863596,-0.031691390280819264,4.699941980658346,-3.2304417708719857,936584.3503698352,489749.7063561238
439.7000000000315,27980.580857718276,45512.624482552754,-18.459141853312907,-1483.4681573898547,1.4662525279784104,-0.0324768180794927,4.699946388241106,-3.2336938602626955,936392.1265437492,489557.4825300379
439.8000000000315,27978.735382540697,45364.25473668059,-18.45475177580351,-1483.697458721627,1.462928253777864,-0.033242742005463004,4.6999512694294925,-3.237023015651628,936204.1382396417,489369.4942259303
439.9000000000315,27976.890391177774,45215.860523317155,-18.449913629221655,-1483.9421336343123,1.459529364663231,-0.033988891146329324,4.699956579798759,-3.2404272151355276,936020.2801036234,489185.636089912
440.00000000003155,27975.045933851343,45067.44065176892,-18.444573264320386,-1484.1987154823348,1.4560574969218119,-0.03471867741419177,4.6999623264280075,-3.243904829506196,935839.6504013654,489005.0063876539
440.10000000003157,27973.20206229033,44918.99412656519,-18.438715610130753,-1484.465252037327,1.4525141214802408,-0.035433754415711234,4.69996850277127,-3.2474543812910293,935661.7422068628,488827.0981931513
440.2000000000316,27971.358832062662,44770.52018430408,-18.43230227665809,-1484.7394226111228,1.4489005003424136,-0.03613621137827358,4.699975114924263,-3.2510746145818494,935485.9572605311,488651.31324681966
440.3000000000316,27969.516296617832,44622.01815220003,-18.42535444829873,-1485.020321040479,1.4452178590402538,-0.03682641302159759,4.699982140710756,-3.2547642816705027,935312.0710134562,488477.4269997447
440.40000000003164,27967.674524008355,44473.487739043856,-18.41772609477,-1485.3041315616833,1.441467024211956,-0.03750834828297803,4.699989646251515,-3.2585226220395587,935139.093174915,488304.4491612035
440.50000000003166,27965.833586963287,44324.92879292932,-18.409370450672025,-1485.5894611453887,1.4376487160329952,-0.03818308178960938,4.69999765108412,-3.2623489350511248,934966.6643680994,488132.020354388
440.6000000000317,27963.99355743627,44176.34119110714,-18.40029527016211,-1485.8760182217977,1.4337636795803204,-0.03885036452674803,4.700006147249305,-3.266242467668985,934794.7096985782,487960.0656848668
440.7000000000317,27962.154505341783,44027.724822769414,-18.390520944895144,-1486.163683377271,1.429812705022368,-0.039509745579524996,4.700015119729075,-3.2702024147067075,934623.1996475534,487788.55563384196
440.80000000003173,27960.316498180193,43879.07958929313,-18.380071615899794,-1486.4523347628683,1.425796627511691,-0.04016077510676907,4.700024550975481,-3.2742279234637905,934452.1056368866,487617.4616231751
440.90000000003175,27958.479600239898,43730.405403768746,-18.368979402950316,-1486.7418552437812,1.421716329103251,-0.04080298408439795,4.70003441812876,-3.2783180890255084,934281.400432239,487446.7564185277
441.0000000000318,27956.643871408665,43581.70219081121,-18.35728831231645,-1487.0321295753831,1.417572742452319,-0.041435866509320525,4.700044690371892,-3.282471947919573,934111.0574263787,487276.4134126674
441.1000000000318,27954.809365426296,43432.96988844528,-18.345059823687382,-1487.323023659276,1.4133668593966797,-0.04205883055639377,4.700055325010979,-3.286688465614299,933941.0516694263,487106.4076557149
441.2000000000318,27952.976126349902,43284.208451491366,-18.33239076394016,-1487.6143695391766,1.40909974864705,-0.042671107496297885,4.70006625535048,-3.29096650670343,933771.3589729887,486936.7149592773
441.30000000003184,27951.14419393179,43135.417845483,-18.319324181133844,-1487.906060083651,1.4047725260060082,-0.043272226410418564,4.700077451393032,-3.2953049253870237,933601.9564476793,486767.31243396795
441.40000000003187,27949.313602572154,42986.598046314575,-18.305913596343977,-1488.1979916842806,1.4003863582523706,-0.043861677536376896,4.700088876160353,-3.2997025179079826,933432.8223239447,486598.1783102333
441.5000000000319,27947.484380866255,42837.74903976433,-18.29221705899703,-1488.4900655025137,1.3959424644800196,-0.04443893772350906,4.700100489703637,-3.304158025223617,933263.9362656173,486429.2922519059
441.6000000000319,27945.65655116393,42688.87082162373,-18.27829702324962,-1488.782181405958,1.391442117617976,-0.04500346862043385,4.700112249139483,-3.308670131521507,933095.2788323961,486260.6348186848
441.70000000003193,27943.83012909314,42539.96339755585,-18.264220707896495,-1489.0742406787251,1.3868866463855163,-0.045554712324597846,4.700124108433622,-3.3132374620481055,932926.8321069533,486092.1880932419
441.80000000003196,27942.005123080653,42391.026782144625,-18.25006012487424,-1489.3661541122883,1.3822774362538395,-0.04609210131676755,4.700136018451438,-3.3178585821975988,932758.579067827,485923.93505411554
441.900000000032,27940.18169985119,42242.06095586636,-18.23423229463609,-1489.6582627826854,1.377615134086885,-0.046623021669546176,4.700149044456001,-3.322533910369116,932590.5039477685,485755.85993405705
442.000000000032,27938.36003101257,42093.06589611824,-18.21668838619677,-1489.9505974811268,1.3729003771763626,-0.04714756910522426,4.700163218808173,-3.3272628416318106,932422.5918306023,485587.9478168908
442.100000000032,27936.540289335284,41944.041585286504,-18.197416772859174,-1490.2431083173462,1.3681338172275253,-0.04766559948837271,4.700178548218872,-3.3320447309913472,932254.8289199856,485420.18490627414
442.20000000003205,27934.722648625255,41794.98801037601,-18.176407100284116,-1490.5357491049808,1.3633161206066753,-0.04817696620850064,4.700195038571813,-3.336878917965138,932087.2023602356,485252.5583465242
442.30000000003207,27932.907283577657,41645.90516253807,-18.15365047597626,-1490.8284783793795,1.358447968773342,-0.0486815183333339,4.700212694805712,-3.34176472603237,931919.7005050891,485085.05649137765
442.4000000000321,27931.094369036353,41496.793035513976,-18.129145413036362,-1491.1212702409225,1.3535300747834984,-0.04917893989843463,4.7002315170181586,-3.34670144223466,931752.3118874561,484917.6678737446
442.5000000000321,27929.284080491274,41347.651627618885,-18.102885450780125,-1491.4140789509156,1.348563169772031,-0.04966905011467372,4.700251508480752,-3.3516883387087213,931585.0227557872,484750.37874207576
442.60000000003214,27927.47659384171,41198.4809401701,-18.074866495625667,-1491.7068744878366,1.3435480022852202,-0.0501516748681093,4.700272671005968,-3.356724668720748,931417.8241514185,484583.180137707
442.70000000003216,27925.672085236685,41049.280977155555,-18.04508605025857,-1491.9996301454455,1.3384853387372784,-0.0506266354794179,4.700295005363817,-3.361809666626538,931250.707966759,484416.0639530474
442.8000000000322,27923.87073093144,40900.05174505767,-18.01354305243897,-1492.2923209787866,1.3333759637240503,-0.0510937501322806,4.700318511378274,-3.366942547654224,931083.6665421508,484249.02252843924
442.9000000000322,27922.07270711431,40750.793252525014,-17.980238171322043,-1492.5849253266215,1.328220680569318,-0.05155283154732346,4.700343187742054,-3.372122507172736,930916.6930690093,484082.0490552978
443.00000000003223,27920.278189748293,40601.505510182586,-17.945173660150434,-1492.87742342426,1.3230203117321415,-0.05200368837176499,4.7003690321051135,-3.377348720372972,930749.7812314766,483915.137217765
443.10000000003225,27918.48735440094,40452.18853041001,-17.90835347354009,-1493.1697977258036,1.31777569928913,-0.052446124430113567,4.700396040999719,-3.382620341710589,930582.9252960074,483748.28128229576
443.2000000000323,27916.700376076587,40302.8423271729,-17.869783243521862,-1493.4620323710917,1.3124877053823223,-0.05287993906807825,4.700424209853249,-3.387936504470927,930416.11997699,483581.4759632784
443.3000000000323,27914.91742903944,40153.46691583941,-17.829470371469633,-1493.7541133349032,1.3071572127180615,-0.053304926642606776,4.7004535329288935,-3.393296320210832,930249.3604815393,483414.71646782756
443.4000000000323,27913.138686633192,40004.06231301609,-17.787424062495678,-1494.0460282331826,1.3017851250710812,-0.053720876469803565,4.700484003302155,-3.398698878231074,930082.642464703,483247.99845099123
443.50000000003234,27911.36432109751,39854.6285364032,-17.743655356830043,-1494.337766128915,1.296372367795553,-0.054127572755281746,4.700515612839388,-3.4041432450438354,929915.961984669,483081.31797095726
443.60000000003237,27909.59450338479,39705.16560468653,-17.698177127205987,-1494.6293171666869,1.2909198883164155,-0.05452479479137492,4.7005483521977585,-3.4096284638813428,929749.3154131784,482914.6713994667
443.7000000000324,27907.829402949974,39555.67353732991,-17.651004348160633,-1494.9206735662328,1.2854286567764288,-0.054912315399867045,4.700582210654089,-3.41515355387766,929582.6997042855,482748.0556905737
443.8000000000324,27906.069187589444,39406.1523546422,-17.602153605288855,-1495.211826877051,1.2798996663590525,-0.05528990417376251,4.700617176412563,-3.4207175100535103,929416.1116776644,482581.4676639526
443.90000000003243,27904.31402322206,39256.602077592295,-17.55164367381727,-1495.502770499083,1.2743339339627653,-0.05565732396287301,4.700653236238852,-3.4263193022760863,929249.5486905094,482414.9046767975
444.00000000003246,27902.564073665388,39107.022727644304,-17.499495566743832,-1495.793499479884,1.2687325008741723,-0.05601433088593012,4.700690375427542,-3.43195787455337,929083.008592741,482248.36457902903
444.1000000000325,27900.81950046947,38957.414326883794,-17.445731959171972,-1496.0840076050983,1.2630964330938896,-0.056360677802826664,4.700728578165433,-3.437632145071543,928916.4889655198,482081.84495180787
444.2000000000325,27899.080462685066,38807.776897875985,-17.39037784407183,-1496.3742900780821,1.2574268220330673,-0.056696110608222584,4.700767827115411,-3.4433410050823436,928749.9878379399,481915.343824228
444.3000000000325,27897.347116643912,38658.11046361204,-17.333460411552387,-1496.6643426393816,1.2517247851228264,-0.057020369102408604,4.700808103491591,-3.449083318368764,928583.5034630618,481748.85944934987
444.40000000003255,27895.61961572393,38508.41504742512,-17.275009199826034,-1496.9541618692501,1.2459914664877514,-0.05733318635075068,4.700849386962129,-3.4548579204743772,928417.0344074991,481582.39039378724
444.50000000003257,27893.8981101581,38358.69067311213,-17.215055658282605,-1497.2437431299695,1.2402280373801862,-0.05763429107565317,4.700891655926577,-3.4606636185463913,928250.5790138992,481415.93500018725
444.6000000000326,27892.182746766106,38208.93736477269,-17.153633919968296,-1497.5330833943694,1.234435697005551,-0.05792340374635218,4.7009348870231245,-3.4664991900175735,928084.1361624289,481249.49214871693
444.7000000000326,27890.47366874288,38059.15514690447,-17.09078023226014,-1497.8221786821596,1.2286156730413502,-0.05820023964200699,4.700979055490564,-3.472363382449214,927917.7045988753,481083.0605851633
444.80000000003264,27888.771015415663,37909.344044401274,-17.0265332721954,-1498.1110250319948,1.222769222308205,-0.058464507331452004,4.701024134966677,-3.478254912658472,927751.2832034053,480916.6391896934
444.90000000003266,27887.07492196643,37759.50408245475,-16.9609344923398,-1498.3996194652461,1.216897631592455,-0.05871590715750085,4.701070097266219,-3.4841724656737636,927584.871259326,480750.227245614
445.0000000000327,27885.38551923066,37609.63528676184,-16.89402735770075,-1498.6879569290415,1.2110022180992381,-0.058954134932168195,4.701116912868604,-3.4901146947693658,927418.4676468042,480583.82363309216
445.1000000000327,27883.702933391825,37459.737683384956,-16.825858388326385,-1498.9760337688786,1.2050843303829335,-0.059178877163047434,4.701164550250018,-3.4960802198670846,927252.0717835268,480417.42776981473
