time[s],x[m],y[m],vx[m/s],vy[m/s],theta[rad],theta_dot[rad/s],gamma[rad],alpha[rad],mass[kg],mass_propellant[kg]
435.8000000000306,28053.948838073753,51328.6800800174,-20.8214850058566,-1535.985081328111,1.5243728045777043,0.001860776396881672,4.698834024663556,-3.1744612200858517,960074.194337447,513239.55032373534
435.9000000000306,28051.88780458891,51175.3567778606,-20.610334848426955,-1533.233021568025,1.5246335454765305,0.0026074089882617705,4.698947387830615,-3.174313842354085,959082.8478356234,512248.2038219117
436.00000000003064,28049.850157236455,51022.31965381297,-20.376473524541566,-1530.371240476296,1.5250010183442184,0.003674728676878859,4.699075041265282,-3.174074022921064,958062.9934762302,511228.3494625185
436.10000000003066,28047.83818554354,50869.58514193688,-20.119716929157228,-1527.3451187609678,1.5255040129268294,0.005029945826108607,4.699216742476164,-3.173712729549335,957000.1952344377,510165.55122072605
436.2000000000307,28045.85385273415,50717.17739182513,-19.843328093878043,-1524.0775011175072,1.5261607922815383,0.006567793547089362,4.699369821628931,-3.173209029347393,955874.1762380318,509039.53222432017
436.3000000000307,28043.89662356437,50565.10580308313,-19.57229169779049,-1520.715887419996,1.5269596401497856,0.007988478682472593,4.699519244978522,-3.172559604828737,954724.6820255644,507890.03801185277
436.40000000003073,28041.964704885962,50413.37565576952,-19.319186784088195,-1517.3014731360324,1.5278717408613354,0.009121007115497093,4.699657072306286,-3.1717853314449505,953562.9014532987,506728.2574395871
436.50000000003075,28040.055954293217,50261.99385815189,-19.0875059274659,-1513.817976176337,1.5288622252449187,0.00990484383583245,4.699780797106506,-3.170918571861587,952384.5975210769,505549.95350736525
436.6000000000308,28038.168042102236,50110.96495747654,-18.879121909801718,-1510.2890067534536,1.529895675705895,0.010334504609764116,4.699889294180982,-3.1699936184750865,951196.060622045,504361.41660833324
436.7000000000308,28036.298599053163,49960.29093733595,-18.694430490736803,-1506.7402014058835,1.5309384117368736,0.010427360309786755,4.6999824146763896,-3.1690440029395157,950004.0674480295,503169.42343431775
436.8000000000308,28034.445309050654,49809.97183960864,-18.53290002509868,-1503.1909772730903,1.5319592509537467,0.010208392168731185,4.700060566125606,-3.168101315171859,948813.7160611828,501979.072047471
436.90000000003084,28032.60598049873,49660.00680770059,-18.393285519236347,-1499.6503190804642,1.53292967515296,0.009704241992132403,4.7001245457635115,-3.1671948706105515,947627.3297118504,500792.68569813855
437.00000000003087,28030.778553750948,49510.39322593383,-18.274267477813186,-1496.135817667607,1.5338242279411483,0.008945527881881915,4.700175277211616,-3.166351049270468,946449.490689499,499614.8466757871
437.1000000000309,28028.96111940551,49361.12627577811,-18.174343454359633,-1492.6695015572677,1.5346208060429358,0.007965781017875144,4.700213850250904,-3.1655930442079683,945285.928149369,498451.2841356572
437.2000000000309,28027.15201159543,49212.19891853881,-18.091078100792764,-1489.2735723930139,1.5353019734991684,0.006811674562324957,4.700241992314826,-3.1649400188156576,944142.3898583256,497307.74584461376
437.30000000003093,28025.350072690413,49063.60267706847,-18.019389050156832,-1485.9624147033835,1.5358587294096737,0.005567559105052774,4.7002631650205,-3.1644044356108263,943022.54441169,496187.9003979781
437.40000000003096,28023.554732667002,48915.329467958225,-17.953400234120906,-1482.7320911024483,1.5362906547676538,0.004319253579800733,4.700281248295157,-3.1639905935275037,941925.2520658262,495090.60805211426
437.500000000031,28021.76650886845,48767.371898850666,-17.882237985493965,-1479.57569107558,1.5366140811973579,0.0032342642970401222,4.70030351056603,-3.1636894293686724,940848.5779732681,494013.93395955616
437.600000000031,28019.986780305982,48619.71939981444,-17.797285624692833,-1476.524990362246,1.536860609546545,0.0024652834918705998,4.70033606972428,-3.163475460177735,939800.7084044393,492966.0643907273
437.700000000031,28018.217286257233,48472.356530314784,-17.694940487486978,-1473.6286949965865,1.5370698659875701,0.002092564410252765,4.70038182405766,-3.1633119580700892,938794.2276619072,491959.5836481953
437.80000000003105,28016.45981126379,48325.27410343044,-17.5747499344333,-1470.8242688434225,1.5372781961494713,0.0020833016190113713,4.700440636889199,-3.163162440739727,937812.6651522471,490978.0211385352
437.90000000003107,28014.716178155806,48178.47268308977,-17.436331079843704,-1468.0142034067023,1.5375173004688192,0.002391043193478458,4.700512044067595,-3.1629947435987757,936830.5195903345,489995.8755766226
438.0000000000311,28012.98818225725,48031.962406774226,-17.279958985555584,-1465.102763155421,1.5378129446612785,0.002956441924592956,4.700595160707276,-3.162782216045997,935822.8770658531,488988.23305214115
438.1000000000311,28011.277036476316,47885.756948542214,-17.111457809340262,-1462.0545823201028,1.538179720398045,0.003667757367665194,4.700685808157164,-3.1625060877591196,934780.6832362304,487946.03922251845
438.20000000003114,28009.58290156335,47739.862860473564,-16.941349129665312,-1458.9408806865229,1.5386192314763771,0.004395110783321668,4.700777414792758,-3.1621581833163805,933722.6444190893,486888.0004053774
438.30000000003116,28007.90492724835,47594.28562953197,-16.77974315001643,-1455.7723094159032,1.5391175633058816,0.004983318295043685,4.700863139427376,-3.1617455761214948,932651.6939497967,485817.0499360848
438.4000000000312,28006.24177055101,47449.02836767747,-16.631566973398627,-1452.5726185450428,1.5396544892685788,0.005369259626973626,4.700939748835823,-3.1612852595672436,931574.0768234684,484739.4328097565
438.5000000000312,28004.59193740023,47304.09471835058,-16.498331507776136,-1449.336493268912,1.5402074214497987,0.005529321812198184,4.701006103450367,-3.1607986820005682,930488.4423199304,483653.7983062185
438.60000000003123,28002.953894631202,47159.4867493512,-16.38042769026415,-1446.0796899937545,1.5407541901680313,0.005467687182325689,4.701061992489246,-3.1603078023212143,929398.88145791,482564.2374441982
438.70000000003125,28001.32617487372,47015.2043438764,-16.277197574803225,-1442.8240547479495,1.5412748676873071,0.00520677519275928,4.701107974200539,-3.159833106513232,928311.0329997278,481476.3889860159
438.8000000000313,27999.707481509824,46871.24531992293,-16.186933638979394,-1439.5902395347707,1.541753200402546,0.004783327152388817,4.701145328494792,-3.1593921280922457,927230.1962639233,480395.5522502115
438.9000000000313,27998.096773932215,46727.60582990729,-16.10707577608944,-1436.3949001564101,1.5421776255796351,0.00424425177089163,4.701175907499924,-3.1589982819202893,926160.6170077487,479325.97299403686
439.0000000000313,27996.49340553898,46584.2808984581,-16.033683932374274,-1433.2493144919301,1.5425431278477348,0.0036550226809970807,4.701202500153724,-3.1586593723059893,925105.1363819177,478270.49236820586
439.10000000003134,27994.89728636174,46441.265919762045,-15.961191772421145,-1430.149786960529,1.5428531096011904,0.0030998175345562807,4.7012289401738,-3.1583758305726093,924062.7306574938,477228.086643782
439.20000000003137,27993.309039082684,46298.55700825312,-15.882472790561474,-1427.089115089266,1.5431217485119872,0.002686389107968419,4.701260160935008,-3.1581384124230207,923031.4718851822,476196.82787147036
439.3000000000314,27991.729645346968,46156.154986136295,-15.793937357159459,-1424.0202211682367,1.5433665570708397,0.0024480855885235216,4.701298344483568,-3.1579317874127284,921999.2324975047,475164.58848379285
439.4000000000314,27990.160099402896,46014.0587551693,-15.69545944071632,-1420.9623096699013,1.543605888916353,0.002393318455134191,4.70134377456562,-3.157737885649267,920970.931461721,474136.2874480091
439.50000000003143,27988.601329683966,45872.26794052513,-15.587697189284096,-1417.9081464416902,1.543856614074435,0.002507251580819927,4.701395976839951,-3.157539362765516,919944.7071562451,473110.0631425333
439.60000000003146,27987.054125427414,45730.78386748345,-15.472042565537693,-1414.8407304168625,1.5441326495032033,0.002760354287682638,4.701453879683375,-3.1573212301801714,918916.218582028,472081.5745683162
439.7000000000315,27985.51899010807,45589.60740505491,-15.35135319344221,-1411.764624285423,1.5444436601850768,0.0031101068187353643,4.701515533127063,-3.1570718729419864,917886.6613847692,471052.0173710574
439.8000000000315,27983.995947796742,45448.73815410252,-15.230423113274297,-1408.6925095239164,1.5447923842105014,0.003487240254244645,4.7015776573993575,-3.156785273188856,916859.3133940628,470024.66938035097
439.9000000000315,27982.484528032426,45308.178370421614,-15.114197643178818,-1405.5978368090068,1.5451727971139078,0.0038041290340637165,4.701636534154045,-3.1564637370401374,915827.4503598616,468992.8063461498
440.00000000003155,27980.983826435233,45167.93091414331,-15.007015971923206,-1402.474562783034,1.5455719730630109,0.003991759491030827,4.701689005033508,-3.156117031970497,914789.5839457137,467954.9399320019
440.10000000003157,27979.49279395362,45027.99846749816,-14.910324816109474,-1399.3244664515228,1.5459749688713937,0.004029958083827742,4.701734010132328,-3.155759041260934,913746.1934401451,466911.54942643334
440.2000000000316,27978.01035787433,44888.38199855561,-14.824360792931342,-1396.1646894254789,1.5463672535475737,0.003922846761799186,4.701771462377959,-3.1554042088303853,912701.6431683266,465866.9991546148
440.3000000000316,27976.535534488085,44749.08082530641,-14.7482338624348,-1393.011732491995,1.5467363455309013,0.0036909198332774,4.701802075401954,-3.1550657298710525,911660.1119214963,464825.46790778456
440.40000000003164,27975.06752205806,44610.092711463825,-14.680124300237171,-1389.8811384258663,1.5470731222788399,0.003367767479384896,4.701827229432379,-3.154754107153539,910625.5144678651,463790.87045415334
440.50000000003166,27973.60582546949,44471.41461030115,-14.616965885697605,-1386.7810116267187,1.5473734040824705,0.003002818036305284,4.701849158665605,-3.154475754583135,909599.8634832929,462765.2194695811
440.6000000000317,27972.150444188646,44333.04408752134,-14.553812808448,-1383.7052277981234,1.547640321872426,0.00266917789955382,4.701871367338474,-3.154231045466048,908581.5617163695,461746.91770265775
440.7000000000317,27970.701834304247,44194.980882249205,-14.486098843979454,-1380.632052721333,1.5478831448507235,0.0024282297829751214,4.701896997919063,-3.154013853068339,907565.080685929,460730.4366722173
440.80000000003173,27969.26067363155,44057.22508611124,-14.411606726988385,-1377.5579613796228,1.54811430493898,0.0023116008825642275,4.70192765578343,-3.15381335084445,906549.5168211164,459714.8728074047
440.90000000003175,27967.827641194403,43919.776398485774,-14.330324371489452,-1374.4868762546616,1.5483462749445136,0.0023197000553344554,4.701963413276023,-3.1536171383315095,905535.8559781159,458701.2119644042
441.0000000000318,27966.403295039127,43782.63491295777,-14.243461552743401,-1371.414855280015,1.5485894632785961,0.0024318833408256196,4.702003392542879,-3.1534139292642824,904523.1090756241,457688.46506191243
441.1000000000318,27964.987960541832,43645.8014117127,-14.153344972938692,-1368.3350124507335,1.5488504546170616,0.002609913384654466,4.702045869865275,-3.1531954152482133,903509.5597455943,456674.91573188256
441.2000000000318,27963.581567992314,43509.27699475696,-14.063925495170801,-1365.2441695574194,1.5491296814106543,0.002792267935927913,4.702087945333235,-3.152958263922581,902494.441652706,455659.79763899423
441.30000000003184,27962.183640275434,43373.06218575322,-13.979277168814926,-1362.1480900374659,1.549422117131084,0.0029243572042960686,4.702126670049257,-3.1527045529181725,901479.2329541292,454644.5889404175
441.40000000003187,27960.79359010486,43237.15881910824,-13.900501705773799,-1359.0336664497313,1.5497201721444345,0.002980550133504119,4.702161112349952,-3.1524409402055174,900460.6600308421,453626.01601713034
441.5000000000319,27959.410741563872,43101.568412215085,-13.828485409864937,-1355.9040689315696,1.5500150733158096,0.002949011713750968,4.702190614360758,-3.152175541044948,899439.5320629756,452604.88804926386
441.6000000000319,27958.034409783064,42966.291690179976,-13.763317808084098,-1352.767220351096,1.5502981913968943,0.002831180810847574,4.702215136185411,-3.1519169447885167,898417.8375939885,451583.19358027674
441.70000000003193,27956.66400049599,42831.32830102913,-13.704092870713763,-1349.6338915084996,1.5505626026822148,0.0026441128532055194,4.70223539576351,-3.1516727930812953,897398.2633496232,450563.6193359114
441.80000000003196,27955.299116629507,42696.6773135563,-13.648838664831516,-1346.509874728289,1.5508045056947923,0.0024190301257743505,4.702252871108907,-3.151448365414115,896382.2393678254,449547.59535411367
441.900000000032,27953.93960939849,42562.338553751906,-13.595072310170499,-1343.3875980438852,1.5510235452730217,0.0021903957822936256,4.702269333419967,-3.151245788146945,895367.8602863322,448533.21627262037
442.000000000032,27952.585563967456,42428.310805166206,-13.540454310338612,-1340.2774858570408,1.5512231235889484,0.0019957831592682745,4.702286599487896,-3.1510634758989475,894357.7078129465,447523.0637992347
442.100000000032,27951.237258798927,42294.5923428479,-13.483051685304622,-1337.1846231830339,1.5514096074652144,0.0018648387626600193,4.702306158208952,-3.150896550743737,893353.0265972603,446518.3825835485
442.20000000003205,27949.89507096035,42161.18195872763,-13.421878385782472,-1334.1038412026592,1.5515905984885339,0.0018099102331953735,4.702328724830054,-3.1507381263415204,892352.5138143571,445517.8698006453
442.30000000003207,27948.5594037057,42028.07939335724,-13.356672546471266,-1331.0256537039368,1.5517737570393648,0.001831585508309808,4.70235444483433,-3.150580687794965,891353.8073444878,444519.16333077586
442.4000000000321,27947.23056086439,41895.28558171815,-13.288428413118703,-1327.9381163909698,1.5519648789042693,0.0019112186490442447,4.702382501374584,-3.1504176224703144,890353.9520043435,443519.3079906316
442.5000000000321,27945.908606633217,41762.80280564747,-13.219542311759824,-1324.8277607067819,1.552165783302714,0.002009043984448244,4.702411001368787,-3.1502452180660736,889349.6361229769,442514.99210926495
442.60000000003214,27944.593316404265,41630.63425673584,-13.152902289500533,-1321.6854891163373,1.552373737399262,0.0020795409654815354,4.70243769603895,-3.150063958639688,888338.6450514471,441504.00103773514
442.70000000003216,27943.284261143715,41498.78310435738,-13.09055260551598,-1318.5115237845591,1.5525830105576466,0.0020927315838441046,4.7024610258089545,-3.149878015251308,887321.0684547828,440486.4244410709
442.8000000000322,27941.980907685676,41367.25161224109,-13.033534580392702,-1315.314921162911,1.5527866067968399,0.0020359623919334554,4.702480244605498,-3.1496936378086584,886299.1679701178,439464.5239564058
442.9000000000322,27940.682717130934,41236.04087810898,-12.98190554742192,-1312.1073413210802,1.5529777679598187,0.0019116116297875191,4.702495367595498,-3.1495175996356792,885275.8299222292,438441.1859085172
443.00000000003223,27939.389247773488,41105.15086144917,-12.934693574445054,-1308.9001665980988,1.553151458118474,0.0017369015865525113,4.702507193462557,-3.149355735344083,884253.8569619721,437419.2129482601
443.10000000003225,27938.100397333474,40974.580396379795,-12.888504400139519,-1305.7046506937245,1.5533079313239189,0.0015647320544479924,4.702518382297696,-3.1492104509737775,883235.9994775952,436401.35546388314
443.2000000000323,27936.816456166438,40844.32847545626,-12.839411670345186,-1302.519209235333,1.5534531468650432,0.001452155411243062,4.7025319312565035,-3.1490787843914605,882221.8422014252,435387.19818771316
443.3000000000323,27935.53789786849,40714.39482407087,-12.785582979481623,-1299.3365138538957,1.5535955100727905,0.001423632077473432,4.702549212008539,-3.1489537019357483,881209.5721014304,434374.9280877183
443.4000000000323,27934.265155377667,40584.78126460693,-12.727424908242465,-1296.1355946393824,1.553742240733571,0.0014673066078041452,4.702569779436283,-3.148827538702712,880194.0546536958,433359.4106399838
443.50000000003234,27932.998426942882,40455.491211291395,-12.667284347859644,-1292.900533155362,1.5538966885761962,0.0015444784262512315,4.702591723190188,-3.1486950346139917,879171.4238811348,432336.7798674228
443.60000000003237,27931.737561495745,40326.52811272938,-12.608654471385472,-1289.6309856201897,1.5540570795490478,0.0016039097285149603,4.702612344365004,-3.1485552648159567,878141.6407015757,431306.9966878636
443.7000000000324,27930.482153991758,40197.89509361219,-12.554075039887625,-1286.3301911719082,1.5542180319632743,0.001609524142265836,4.702629684865258,-3.1484116529019834,877105.5340154085,430270.8900016965
443.8000000000324,27929.231724455323,40069.59432847351,-12.504295364324364,-1283.0076513868285,1.55437333439533,0.0015530243205568125,4.702643208828263,-3.148269874432933,876065.4459197685,429230.80190605647
443.90000000003243,27927.985875299964,39941.62695738805,-12.458491553600032,-1279.6737108546256,1.5545182388428553,0.0014490444752519574,4.702653609679812,-3.1481353708369566,875023.9069460905,428189.2629323785
444.00000000003246,27926.744428182254,39813.993338715845,-12.414471177116292,-1276.3361867220065,1.5546513635102264,0.0013312466737102817,4.702662640391243,-3.148011276881017,873982.8176749507,427148.1736612387
444.1000000000325,27925.507456465486,39686.69395498045,-12.369717167667362,-1272.993837353909,1.554774919465723,0.0012355595549670975,4.70267225787756,-3.1478973384118367,872941.8698835127,426107.2258698007
444.2000000000325,27924.275181798006,39559.72989256814,-12.32274667480071,-1269.6406241231139,1.5548930799329403,0.001181604672174108,4.702683588539111,-3.147790508606171,871899.597575993,425064.95356228104
444.3000000000325,27923.047854196702,39433.102368916,-12.273276013047992,-1266.2752365213657,1.5550103590336817,0.0011727910074143533,4.70269686025869,-3.147686501225008,870855.691364929,424021.047351217
444.40000000003255,27921.82565529764,39306.812847498164,-12.221988990615014,-1262.8952141783864,1.55513020462517,0.0011984559148841196,4.702711528677887,-3.147581324052717,869809.5686236047,422974.92460989277
444.50000000003257,27920.608574383168,39180.86309291013,-12.170809144741764,-1259.49754588039,1.5552540412440319,0.0012383661886175576,4.702726055373488,-3.1474720141294563,868760.5207440914,421925.87673037936
444.6000000000326,27919.396457333718,39055.25509231024,-12.121170494507663,-1256.0800059988492,1.5553803859858404,0.0012634474180844527,4.702739281156531,-3.147358895170691,867708.0314833735,420873.3874696615
444.7000000000326,27918.189029410943,38929.99064007452,-12.074279227758156,-1252.644522357202,1.5555060901763764,0.0012570419053600402,4.702750248015695,-3.1472441578393187,866652.5864010421,419817.9423873301
444.80000000003264,27916.98599294117,38805.071260008146,-12.030364697762773,-1249.193800663738,1.5556277533102305,0.0012166313385415478,4.702758775057886,-3.147131021747655,865594.8519097185,418760.2078960065
444.90000000003266,27915.78711079863,38680.49827571028,-11.98882142540296,-1245.7298429786879,1.5557428874030041,0.0011513409277367746,4.702765343784618,-3.147022456381614,864535.3194593153,417700.6754456034
445.0000000000327,27914.592271606096,38556.2727600468,-11.948391925323092,-1242.2551566347606,1.5558508414369658,0.0010795403396159134,4.702770969603195,-3.1469201281662293,863474.597992624,416639.9539789121
445.1000000000327,27913.40151135359,38432.395864670376,-11.907602525065547,-1238.768953764209,1.5559530232545258,0.0010218181755991707,4.702776828127901,-3.1468238048733754,862412.5026700088,415577.8586562969
445.20000000003273,27912.214940970916,38308.868594042855,-11.865703826725607,-1235.2727062751974,1.5560519079588377,0.0009888470431188808,4.702783539548438,-3.1467316315896,861349.3932938143,414514.7492801023
