time[s],x[m],y[m],vx[m/s],vy[m/s],theta[rad],theta_dot[rad/s],gamma[rad],alpha[rad],mass[kg],mass_propellant[kg]
435.8000000000306,28053.94515438058,51328.62081586354,-20.858321937610484,-1536.5777228666966,1.524356795886167,0.001700689481510016,4.698815283072898,-3.1744584871867314,960232.7344039808,513398.0903902691
435.9000000000306,28051.875637807032,51175.17321322674,-20.695165735494445,-1534.4760263679952,1.5245704694844897,0.0021367359832263244,4.698903001624803,-3.1743325321403133,959415.1448502755,512580.5008365638
436.00000000003064,28049.82345666016,51021.93678505216,-20.52181146870321,-1532.3642817458058,1.524845720362334,0.002752508778441985,4.698997527082094,-3.1741518067197596,958595.4427512032,511760.79873749154
436.10000000003066,28047.789514976255,50868.91243466684,-20.339416839067468,-1530.243503853198,1.5251988958163194,0.0035317545398537474,4.699098141936046,-3.173899246119727,957773.9153579277,510939.271344216
436.2000000000307,28045.774583953775,50716.10055498718,-20.14931022481723,-1528.1187967966612,1.5256448402614138,0.004459444450943734,4.699204048263049,-3.1735592080016346,956951.9402974105,510117.2962836988
436.3000000000307,28043.77939489207,50563.50201216472,-19.95189061704508,-1525.9854282245951,1.526197804575026,0.005529643136121688,4.699314967065801,-3.173117162490775,956128.2665986025,509293.6225848908
436.40000000003073,28041.80462673845,50411.117684660145,-19.74768153620389,-1523.8432750457544,1.5268716783385075,0.006738737634815139,4.69943057678626,-3.1725588984477526,955302.8727019188,508468.2286882071
436.50000000003075,28039.850847201913,50258.94745980844,-19.53779536535468,-1521.7022485170198,1.5276798177934379,0.008081394549303228,4.6995502519923225,-3.1718704341988846,954478.4058197942,507643.76180608245
436.6000000000308,28037.918591980957,50106.992148518504,-19.322552209559383,-1519.553112899403,1.5286350268444449,0.009552090510069743,4.699673721739419,-3.1710386948949743,953652.4249738392,506817.7809601275
436.7000000000308,28036.008273144653,49955.25234518905,-19.10318836305628,-1517.3980332945189,1.5297489274697165,0.011139006252715418,4.699800207502884,-3.1700512800331673,952825.5285860143,505990.8845723026
436.8000000000308,28034.120158365455,49803.72812737762,-18.88114779197732,-1515.2421781143328,1.531031877521722,0.012829500520055772,4.699928813344136,-3.168896935822414,951999.1113873303,505164.4673736186
436.90000000003084,28032.25435654571,49652.41889612909,-18.658018197469115,-1513.0923124852604,1.5324928662240505,0.014609887023283766,4.7000585545082965,-3.1675656882842462,951174.9882813401,504340.3442676284
437.00000000003087,28030.410935477226,49501.325046384925,-18.434210684844842,-1510.9384974417026,1.5341404295569132,0.016475633328627098,4.7001890820171655,-3.166048652460252,950350.5429154069,503515.89890169515
437.1000000000309,28028.590143406604,49350.45173946285,-18.20792070623175,-1508.7330692207358,1.5359841860500465,0.018437564931332313,4.700321214926321,-3.1643370288762744,949513.1910184583,502678.5470047466
437.2000000000309,28026.79167986067,49199.79918106567,-17.984635459306674,-1506.5255839718031,1.5380287107943336,0.020445247442870355,4.700451724632859,-3.1624230138385254,948676.1107657009,501841.4667519892
437.30000000003093,28025.015213386112,49049.36849344337,-17.76466474560794,-1504.3068762229864,1.5402786251243825,0.022499143300488484,4.700580326650795,-3.1603017015264125,947836.897391345,501002.2533776332
437.40000000003096,28023.260266452904,48899.16025984772,-17.549469332080413,-1502.0823359564893,1.5427375342310536,0.024589091066711876,4.700706084938739,-3.157968550707685,946996.999235607,500162.3552218952
437.500000000031,28021.526256370504,48749.17509692632,-17.34010082399369,-1499.8516292139884,1.5454084136611304,0.026708794300766375,4.700828284660058,-3.1554198709989274,946156.3478150995,499321.7038013877
437.600000000031,28019.812492178135,48599.41361941209,-17.137641923709193,-1497.6147751423507,1.5482936008364638,0.02885187175333499,4.700946188676795,-3.1526525878403313,945314.9664734415,498480.32245972956
437.700000000031,28018.118177099925,48449.87646916413,-16.943150782103626,-1495.3715024795274,1.5513948463238627,0.031012454873988862,4.701059069544469,-3.149664223220606,944472.7999951667,497638.1559814548
437.80000000003105,28016.44236025361,48300.56376502587,-16.758168463143246,-1493.1270413826235,1.5547127042487603,0.03317857924897528,4.701165913365865,-3.146453209117105,943631.2397713844,496796.59575767245
437.90000000003107,28014.78395546761,48151.47525903477,-16.584047860015218,-1490.8850599109935,1.5582467334236103,0.03534029174850017,4.701265813114895,-3.1430190796912845,942791.257614873,495956.61360116105
438.0000000000311,28013.14162635764,48002.60992067001,-16.423291099715662,-1488.653383647597,1.5619935988928024,0.03746865469192075,4.701357114253058,-3.139363515360256,941954.9223912132,495120.27837750124
438.1000000000311,28011.51418449367,47853.97073526755,-16.274418639704635,-1486.391854024655,1.5659528699163823,0.03959271023579899,4.701440475574038,-3.1354876056576555,941111.7097621456,494277.0657484336
438.20000000003114,28009.900371792195,47705.56031857644,-16.138127014744562,-1484.1041669110723,1.5701245042505545,0.04171634334172149,4.701515423566279,-3.131390919315724,940262.6085164172,493427.96450270514
438.30000000003116,28008.2987005027,47557.37784925576,-16.016712894948256,-1481.8246932068305,1.5745061682519095,0.043816640013549985,4.701580624126559,-3.1270744558746495,939416.6184979149,492581.97448420286
438.4000000000312,28006.707652320572,47409.42506518215,-15.910481821272581,-1479.5278407361025,1.5790961984010015,0.04590030149092003,4.701635638600662,-3.1225394401996605,938567.0444954362,491732.4004817242
438.5000000000312,28005.12573223869,47261.7127860419,-15.819200818846356,-1477.122791402528,1.5838959587981776,0.04799760397176192,4.701679920738394,-3.1177839619402166,937690.2050533626,490855.5610396505
438.60000000003123,28003.55113705468,47114.2421961128,-15.745951840063231,-1474.7058992909717,1.5889024540162264,0.05006495218048879,4.70171203557022,-3.112809581553994,936811.2705101207,489976.62649640854
438.70000000003125,28001.98203950397,46967.00245410643,-15.690975507100763,-1472.3974200636903,1.5941100449417296,0.05207590925503133,4.701732630852521,-3.1076225859107915,935961.5221064246,489126.87809271243
438.8000000000313,28000.4167412964,46819.97877868977,-15.652982075689566,-1470.236754166535,1.5995129948109017,0.054029498691721606,4.701742810199991,-3.102229815389089,935151.1046771772,488316.460663465
438.9000000000313,27998.853573662414,46673.164695303945,-15.63167633986586,-1468.140833858306,1.6051104569367405,0.05597462125838766,4.701742123265076,-3.096631666328335,934358.3189122102,487523.674898498
439.0000000000313,27997.290863212802,46526.56150233002,-15.627104496109448,-1466.0319297392298,1.6109060703134044,0.05795613376663903,4.701729926957575,-3.0908238566441706,933562.9244066713,486728.2803929591
439.10000000003134,27995.72683143228,46380.170221998174,-15.640317805214476,-1463.9128033184807,1.6169029668450419,0.05996896531637495,4.70170547333616,-3.084802506491118,932765.6257314915,485930.9817177792
439.20000000003137,27994.159609270708,46233.99071772674,-15.672221615701265,-1461.7950427143928,1.623103304562035,0.06200337716993222,4.701668174306772,-3.078564869744737,931969.4104779465,485134.7664642342
439.3000000000314,27992.58724819751,46088.022625809914,-15.72361073200186,-1459.6809191682476,1.6295089447820004,0.06405640219965324,4.701617446410906,-3.0721085016289056,931174.8406454284,484340.19663171604
439.4000000000314,27991.007719732297,45942.26558813619,-15.795284652127313,-1457.5703767371815,1.6361216111627142,0.06612666380713698,4.701552682773417,-3.0654310716107025,930381.8708639028,483547.2268501905
439.50000000003143,27989.418915766135,45796.71928246987,-15.888039661607188,-1455.4630566632118,1.6429429242523328,0.06821313089618646,4.70147327314652,-3.0585303488941866,929590.4184896941,482755.7744759818
439.60000000003146,27987.818660416633,45651.383391909985,-16.002553495006918,-1453.3589055988568,1.649974450971894,0.07031526719561298,4.701378687756086,-3.051404236784192,928800.4382311563,481965.794217444
439.7000000000315,27986.20470814424,45506.257607062944,-16.13952272392295,-1451.2578484704238,1.6572177407153295,0.07243289743435369,4.701268380814662,-3.044050640099333,928011.87415823,481177.2301445178
439.8000000000315,27984.574737386218,45361.3416545375,-16.299707580217405,-1449.1595252544419,1.6646743713119472,0.07456630596617816,4.701141757435172,-3.036467386123225,927224.591325439,480389.94731172675
439.9000000000315,27982.92634818473,45216.635306157994,-16.483892014869944,-1447.0634837950806,1.672345962176547,0.07671590864599825,4.700998202256491,-3.0286522400799436,926438.429647056,479603.78563334374
440.00000000003155,27981.257054675756,45072.13837141563,-16.69293508973525,-1444.9693474236399,1.6802341850446423,0.07888222868095272,4.700837044995186,-3.020602859950544,925653.2711878681,478818.6271741558
440.10000000003157,27979.564286880333,44927.850715615874,-16.92767795422773,-1442.8765579975598,1.6883407538697812,0.08106568825139022,4.700657622426581,-3.0123168685568,924868.924713993,478034.2807002806
440.2000000000316,27977.84539053625,44783.77223285599,-17.18896344083399,-1440.7848275988604,1.6966674082285358,0.08326654358754534,4.700459268417485,-3.003791860188949,924085.2682532197,477250.62423950736
440.3000000000316,27976.097630237135,44639.90279713229,-17.477602991171548,-1438.6943572370321,1.7052159034040786,0.08548495175542903,4.700241338879384,-2.9950254354753056,923302.2992859241,476467.6552722117
440.40000000003164,27974.318169387956,44496.24236948271,-17.794608491780522,-1436.6042764957715,1.713988133476618,0.087722300725395,4.70000303750031,-2.9860149040236923,922519.7675462269,475685.12353251455
440.50000000003166,27972.50406574484,44352.79105748034,-18.14103643115282,-1434.5131200236956,1.7229861276009686,0.08997994124350607,4.699743526533468,-2.9767573989324996,921737.2441212898,474902.60010757745
440.6000000000317,27970.652282693223,44209.548980887594,-18.51783051618409,-1432.4207659274796,1.73221194465148,0.09225817050511517,4.699462053137921,-2.967250108486441,920954.6338029107,474119.9897891983
440.7000000000317,27968.759693197688,44066.5162178211,-18.925894955352234,-1430.3276306649004,1.7416676434748866,0.09455698823406572,4.6991578925296835,-2.957490249054797,920171.9683943469,473337.3243806345
440.80000000003173,27966.823343297492,43923.692732423,-19.363499001950682,-1428.2348539810362,1.7513541536560446,0.09686510181158003,4.698832167456358,-2.947478013800313,919389.2773808014,472554.6333670891
440.90000000003175,27964.84021176669,43781.07843046862,-19.831315308021495,-1426.1430195438145,1.761272327561775,0.0991817390573041,4.69848431797704,-2.937211990415265,918606.5919160284,471771.94790231617
441.0000000000318,27962.8072061738,43638.67315005619,-20.33005592891304,-1424.052804124276,1.7714229566151487,0.10150629053373808,4.6981137548562835,-2.9266907982411348,917823.9886413988,470989.34462768666
441.1000000000318,27960.721160877667,43496.476679575,-20.860452961297714,-1421.9647048118918,1.7818067875553136,0.1038383094016482,4.697719870385614,-2.9159130828302997,917041.4922268338,470206.84821312164
441.2000000000318,27958.5788376261,43354.4887559355,-21.423232515677583,-1419.8792363949601,1.792424525081732,0.10617737526418156,4.697302058536646,-2.9048775334549144,916259.1261832273,469424.4821695151
441.30000000003184,27956.376926251967,43212.70906260113,-22.019113741336522,-1417.7969333436974,1.8032768344963201,0.1085230941458827,4.69685971581501,-2.8935828813186895,915476.913271185,468642.2692574728
441.40000000003187,27954.112045373957,43071.13722790234,-22.648808780106307,-1415.7183469878416,1.8143643445092044,0.11087510012884243,4.696392241425469,-2.8820278969162647,914694.8746667492,467860.23065303697
441.5000000000319,27951.780743301173,42929.77282260877,-23.313020727835884,-1413.6440529357217,1.8256876496175285,0.11323305108324151,4.695899038971815,-2.8702113893542864,913913.0317867259,467078.38777301373
441.6000000000319,27949.379463331952,42788.61551026877,-24.01279969220765,-1411.573123399986,1.8372473757245567,0.11559726107028231,4.695379246091387,-2.8581318703668304,913131.0078912965,466296.36387758434
441.70000000003193,27946.904567873295,42647.66491728294,-24.74895458659208,-1409.5059298582569,1.8490440886711235,0.11796712946566765,4.694832181844265,-2.8457880931731414,912348.7558746857,465514.1118609735
441.80000000003196,27944.352343911767,42506.92060859571,-25.522239615281094,-1407.443086872318,1.8610782848091776,0.12034196138054008,4.69425720448284,-2.8331789196736623,911566.2849587182,464731.64094500605
441.900000000032,27941.71899996303,42366.38210118965,-26.3334394873851,-1405.3850740606463,1.8733504059031707,0.12272121093993092,4.693653646719117,-2.820303240815946,910783.5621139196,463948.9181002074
442.000000000032,27939.000636087487,42226.04897270475,-27.183638755431083,-1403.3312848490013,1.8858609069840508,0.12510501080880193,4.693020610423126,-2.8071597034390754,910000.2619392152,463165.617925503
442.100000000032,27936.193261408953,42085.920779838554,-28.07374678533157,-1401.2819286619595,1.8986101967739164,0.12749289789865564,4.69235732858977,-2.7937471318158535,909216.2632462773,462381.61923256505
442.20000000003205,27933.29280357065,41945.997020276096,-29.00457838302586,-1399.237595624607,1.9115986164657104,0.12988419691793976,4.691663104188196,-2.780064487722486,908431.5363651303,461596.8923514181
