t[s],x[m],y[m],vx[m/s],vy[m/s],mass[kg]
0,0,0,0,0,101325
0.01,0,0,0,0,8111653.21969754
0.02,0,0,4.41492131828337e-18,-0.0259653632255895,8111482.77146688
0.03,4.41492131828337e-20,-0.000259653632255895,-0.000941417619644659,-0.0491722137755849,8111305.79179411
0.04,-9.41417619644655e-06,-0.000751375770011743,-0.00188331312787857,-0.0696036284703995,8111122.25557591
0.05,-2.82473074752322e-05,-0.00144741205471574,-0.00282568762645489,-0.0873652857671478,8110932.41301036
0.06,-5.65041837397811e-05,-0.00232106491238722,-0.00376852062197475,-0.102445826379376,8110736.23765838
0.07,-9.41893899595286e-05,-0.00334552317618098,-0.00471179024593468,-0.114833805707896,8110533.70289884
0.08,-0.000141307292418875,-0.00449386123325994,-0.00565547324707976,-0.124518184995596,8110324.78308948
0.09,-0.000197862024889673,-0.00573904308321589,-0.00659954497924504,-0.131487868178941,8110109.45247205
0.1,-0.000263857474682123,-0.0070539217650053,-0.00754397938922398,-0.135731704458947,8109887.68517847
0.11,-0.000339297268574363,-0.00841123880959477,-0.00848874900457838,-0.137238491460195,8109659.45523831
0.12,-0.000424184758620147,-0.00978362372419672,-0.00943382492137319,-0.135996976394273,8109424.73658169
0.13,-0.000518523007833879,-0.0111435934881395,-0.0103791767918419,-0.131995857568022,8109183.50304286
0.14,-0.000622314775752298,-0.0124635520638197,-0.0113247728119872,-0.125223786615756,8108935.72836564
0.15,-0.000735562503872169,-0.0137157899299772,-0.0122705797091412,-0.115669372000349,8108681.38621185
0.16,-0.000858268300963582,-0.0148724836499807,-0.0132165627295048,-0.103321184773256,8108420.450175
0.17,-0.00099043392825863,-0.0159056954977133,-0.0141626856257373,-0.0881677685459097,8108152.89380407
0.18,-0.001132060784516,-0.0167873731831724,-0.0151089106447039,-0.0701976578659873,8107878.69064706
0.19,-0.00128314989096304,-0.0174893497618323,-0.0160551985157073,-0.0493994149664935,8107597.81433801
0.2,-0.00144370187612011,-0.0179833439114972,-0.0170015084399816,-0.0257617118897841,8107310.23879117
0.21,-0.00161371696051993,-0.018240961030395,-0.0179477980839818,0.000726454435078738,8107015.93870933
0.22,-0.00179319494135975,-0.0182336964860442,-0.0188940235859326,0.0300750432058182,8106714.8912825
0.23,-0.00198213517721907,-0.0179329460539861,-0.0198401398359394,0.0622893138855856,8106407.08482463
0.24,-0.00218053657557847,-0.0173100529151302,-0.0207861011160688,0.0973362555541038,8106092.59808058
0.25,-0.00238839758673916,-0.0163366903595892,-0.0217318639610974,0.13509198720846,8105771.72446607
0.26,-0.00260571622635013,-0.0149857704875046,-0.0226773818259549,0.1755066635807,8105444.58247744
0.27,-0.00283249004460968,-0.0132307038516976,-0.023622707483101,0.216193517525322,8105116.81077261
0.28,-0.00306871711944069,-0.0110687686764443,-0.0245678204558706,0.256885981900075,8104789.03907666
0.29,-0.0033143953239994,-0.0084999088574436,-0.025512689645406,0.297584057771953,8104461.26738943
0.3,-0.00356952222045346,-0.00552406827972406,-0.0264572839462097,0.338287746228485,8104133.49571072
0.31,-0.00383409505991555,-0.00214119081743921,-0.027401572239098,0.378997048359317,8103805.72404033
0.32,-0.00410811078230653,0.00164877966615396,-0.0283455233914506,0.419711965254343,8103477.95237805
0.33,-0.00439156601622104,0.00584589931869739,-0.0292891062574143,0.460432498003334,8103150.18072367
0.34,-0.00468445707879518,0.0104502242987307,-0.0302322896781719,0.501158647696324,8102822.40907698
0.35,-0.0049867799755769,0.015461810775694,-0.0311750424821584,0.541890415423296,8102494.63743778
0.36,-0.00529853040039848,0.0208807149299269,-0.0321173334853174,0.582627802274397,8102166.86580586
0.37,-0.00561970373525166,0.0267069929526709,-0.0330591314913051,0.623370809339316,8101839.09418101
0.38,-0.00595029505016471,0.0329407010460641,-0.0340004052917891,0.664119437708207,8101511.32256303
0.39,-0.0062902991030826,0.0395818954231461,-0.0349411236666578,0.704873688471163,8101183.55095171
0.4,-0.00663971033974918,0.0466306323078578,-0.0358812553842392,0.745633562717727,8100855.77934683
0.41,-0.00699852289359157,0.054086967935035,-0.0368207692015738,0.78639906153743,8100528.00774819
0.42,-0.00736673058560731,0.0619509585504093,-0.0377596338646636,0.827170186019926,8100200.23615559
0.43,-0.00774432692425395,0.0702226604106086,-0.038697818108701,0.867946937254703,8099872.4645688
0.44,-0.00813130510534095,0.0789021297831556,-0.0396352906583104,0.908729316331058,8099544.69298764
0.45,-0.00852765801192406,0.0879894229464662,-0.0405720202277918,0.949517324338065,8099216.92141187
0.46,-0.00893337821420198,0.0974845961898469,-0.0415079755213629,0.990310962364558,8098889.1498413
0.47,-0.00934845796941561,0.107387705813492,-0.0424431252198015,1.03111023149869,8098561.37827572
0.48,-0.00977288922161362,0.117698808128479,-0.043377437997824,1.07191513282877,8098233.60671492
0.49,-0.0102066636015919,0.128417959456767,-0.04431088253085,1.11272566744266,8097905.83515868
0.5,-0.0106497724269004,0.139545216131194,-0.0452434274851903,1.15354183642791,8097578.06360679
0.51,-0.0111022067017523,0.151080634495473,-0.0461750415182899,1.19436364087167,8097250.29205906
0.52,-0.0115639571169352,0.163024270904189,-0.0471056932789723,1.23519108186068,8096922.52051526
0.53,-0.0120350140497249,0.175376181722796,-0.048035351407682,1.27602416048126,8096594.74897519
0.54,-0.0125153675638017,0.188136423327609,-0.048963984536729,1.3168628778193,8096266.97743863
0.55,-0.013005007409169,0.201305052105802,-0.0498915612905318,1.35770723496018,8095939.20590538
0.56,-0.0135039230220743,0.214882124455404,-0.0508180502858618,1.39855723298878,8095611.43437522
0.57,-0.0140121035249329,0.228867696785291,-0.0517434201320869,1.43941287298946,8095283.66284796
0.58,-0.0145295377262538,0.243261825515186,-0.0526676394314156,1.48027415604602,8094955.89132336
0.59,-0.015056214120568,0.258064567075646,-0.0535906767791413,1.52114108324167,8094628.11980123
0.6,-0.0155921208883594,0.273275977908063,-0.0545125007638859,1.56201365565901,8094300.34828136
0.61,-0.0161372458959982,0.288896114464653,-0.0554330799678449,1.60289187438,8093972.57676352
0.62,-0.0166915766956767,0.304925033208453,-0.0563523829670311,1.64377574048595,8093644.80524752
0.63,-0.017255100525347,0.321362790613313,-0.0572703783315154,1.68466525505735,8093317.03373314
0.64,-0.0178278043086621,0.338209443163886,-0.0581870346256577,1.72556041917347,8092989.26222017
0.65,-0.0184096746549187,0.355465047355621,-0.0591023204083895,1.76646123391344,8092661.49070841
0.66,-0.0190006978590026,0.373129659694755,-0.0600162042123663,1.80736770035598,8092333.71919762
0.67,-0.0196008599011263,0.391203336698315,-0.0609286545837691,1.84827981957872,8092005.94768762
0.68,-0.020210146446964,0.409686134894102,-0.0618396400666502,1.88919759265838,8091678.17617818
0.69,-0.0208285428476305,0.428578110820686,-0.0627491292005932,1.93012102067087,8091350.4046691
0.7,-0.0214560341396364,0.447879321027395,-0.0636570905209583,1.9710501046912,8091022.63316016
0.71,-0.022092605044846,0.467589822074307,-0.064563492559127,2.01198484579349,8090694.86165116
0.72,-0.0227382399704373,0.487709670532242,-0.0654683038427474,2.05292524505094,8090367.09014188
0.73,-0.0233929230088647,0.508238922982751,-0.0663714928959793,2.09387130353581,8090039.31863211
0.74,-0.0240566379378245,0.529177636018109,-0.0672730282397393,2.13482302231937,8089711.54712164
0.75,-0.0247293682202219,0.550525866241303,-0.0681728783919467,2.17578040247188,8089383.77561026
0.76,-0.0254110970041414,0.572283670266021,-0.0690710118677681,2.21674344506258,8089056.00409777
0.77,-0.0261018071228191,0.594451104716647,-0.0699673971798632,2.25771215115967,8088728.23258394
0.78,-0.0268014810946177,0.617028226228244,-0.0708620028386303,2.29868652183024,8088400.46106857
0.79,-0.027510101123004,0.640015091446546,-0.0717547973524518,2.3396665581403,8088072.68955144
0.8,-0.0282276490965285,0.663411757027949,-0.0726457492279396,2.38065226115471,8087744.91803236
0.81,-0.0289541065888079,0.687218279639496,-0.073534826970181,2.42164363193718,8087417.1465111
0.82,-0.0296894548585097,0.711434715958868,-0.0744219990829843,2.46264067155023,8087089.37498746
0.83,-0.0304336748493396,0.736061122674371,-0.0753072340691242,2.50364338105517,8086761.60346123
0.84,-0.0311867471900308,0.761097556484922,-0.0761905004256988,2.54465176151217,8086433.83193219
0.85,-0.0319486521942878,0.786544074100044,-0.0770717666354221,2.58566581398038,8086106.06040014
0.86,-0.032719369860642,0.812400732239848,-0.0779510011994485,2.62668553951732,8085778.28886486
0.87,-0.0334988798726365,0.838667587635021,-0.0788281726188838,2.66771093917921,8085450.51732615
0.88,-0.0342871615988253,0.865344697026813,-0.0797032493950303,2.7087420140209,8085122.7457838
0.89,-0.0350841940927756,0.892432117167022,-0.0805762000296336,2.7497787650959,8084794.9742376
0.9,-0.035889956093072,0.919929904817981,-0.0814469930251279,2.79082119345632,8084467.20268733
0.91,-0.0367044260233233,0.947838116752545,-0.0823155968848823,2.83186930015285,8084139.43113279
0.92,-0.0375275819921721,0.976156809754073,-0.0831819801134469,2.87292308623474,8083811.65957377
0.93,-0.0383594017933066,1.00488604061642,-0.0840461112167987,2.91398255274976,8083483.88801006
0.94,-0.0391998629054745,1.03402586614392,-0.0849079587025877,2.9550477007442,8083156.11644145
0.95,-0.0400489424925004,1.06357634315136,-0.0857674910803835,2.99611853126282,8082828.34486774
0.96,-0.0409066174033043,1.09353752846399,-0.0866246768619205,3.03719504534884,8082500.57328871
0.97,-0.0417728641719235,1.12390947891748,-0.087479484561345,3.07827724404389,8082172.80170416
0.98,-0.0426476590175369,1.15469225135792,-0.0883318826954606,3.11936512838803,8081845.03011387
0.99,-0.0435309778444915,1.1858859026418,-0.089181839783975,3.16045869941967,8081517.25851765
1,-0.0444227962423313,1.21749048963599,-0.0900293243497457,3.2015579581756,8081189.48691528
1.01,-0.0453230894858287,1.24950606921775,-0.0908743049190267,3.2426629056909,8080861.71530656
1.02,-0.046231832535019,1.28193269827466,-0.0917167500217143,3.28377354299898,8080533.94369127
1.03,-0.0471490000352361,1.31477043370465,-0.0925566281792847,3.32488987113173,8080206.17206922
1.04,-0.048074566317029,1.34801933241596,-0.0933939079184504,3.36601189111928,8079878.40044019
1.05,-0.0490085053962135,1.38167945132716,-0.0942285577815246,3.40713960398978,8079550.62880398
1.06,-0.0499507909740287,1.41575084736706,-0.0950605463154488,3.44827301076956,8079222.85716038
1.07,-0.0509013964371832,1.45023357747475,-0.0958898420720391,3.48941211248316,8078895.08550919
1.08,-0.0518602948579036,1.48512769859958,-0.0967164136082326,3.53055691015322,8078567.31385019
1.09,-0.0528274589939859,1.52043326770111,-0.0975402294863332,3.57170740480056,8078239.54218319
1.1,-0.0538028612888493,1.55615034174912,-0.0983612582742584,3.61286359744404,8077911.77050798
1.11,-0.0547864738715918,1.59227897772356,-0.0991794685457849,3.65402548910064,8077583.99882436
1.12,-0.0557782685570497,1.62881923261457,-0.0999948288807953,3.69519308078536,8077256.22713211
1.13,-0.0567782168458576,1.66577116342242,-0.100807307865524,3.73636637351124,8076928.45543104
1.14,-0.0577862899245129,1.70313482715753,-0.101616874092803,3.7775453682893,8076600.68372094
1.15,-0.0588024586654409,1.74091028084043,-0.102423496162309,3.81873006612854,8076272.91200161
1.16,-0.059826693627064,1.77909758150171,-0.103227142680809,3.85992046803592,8075945.14027284
1.17,-0.0608589650538721,1.81769678618207,-0.104027782262406,3.90111657501632,8075617.36853443
1.18,-0.0618992428764961,1.85670795193223,-0.104825383528785,3.94231838807249,8075289.59678619
1.19,-0.062947496711784,1.89613113581296,-0.105619915109462,3.98352590820509,8074961.82502789
1.2,-0.0640036958628786,1.93596639489501,-0.106411345642025,4.02473913641262,8074634.05325935
1.21,-0.0650678093192989,1.97621378625914,-0.107199643772383,4.06595807369139,8074306.28148037
1.22,-0.0661398057570227,2.01687336699605,-0.107984778135402,4.10718272103587,8073978.50969073
1.23,-0.0672196535383767,2.05794519420641,-0.108766717390639,4.14841307943801,8073650.73789024
1.24,-0.0683073207122831,2.09942932500079,-0.109545430210458,4.18964914988747,8073322.9660787
1.25,-0.0694027750143877,2.14132581649966,-0.110320885276534,4.2308909333716,8072995.19425591
1.26,-0.070505983867153,2.18363472583338,-0.111093051280087,4.2721384308755,8072667.42242166
1.27,-0.0716169143799539,2.22635611014213,-0.111861896922138,4.3133916433819,8072339.65057577
1.28,-0.0727355333491752,2.26949002657595,-0.112627390913749,4.35465057187121,8072011.87871802
1.29,-0.0738618072583127,2.31303653229467,-0.113389501976271,4.39591521732147,8071684.10684822
1.3,-0.0749957022780754,2.35699568446788,-0.11414819884159,4.43718558070833,8071356.33496617
1.31,-0.0761371842664914,2.40136754027496,-0.11490345025237,4.478461663005,8071028.56307168
1.32,-0.077286218769015,2.44615215690501,-0.115655224962301,4.51974346518227,8070700.79116454
1.33,-0.0784427710186381,2.49134959155684,-0.116403491736344,4.56103098820845,8070373.01924456
1.34,-0.0796068059360015,2.53695990143892,-0.117148219350977,4.60232423304936,8070045.24731154
1.35,-0.0807782881295113,2.58298314376941,-0.117889376594437,4.64362320066832,8069717.47536529
1.36,-0.0819571818954556,2.6294193757761,-0.118626932266971,4.6849278920261,8069389.70340561
1.37,-0.0831434512181253,2.67626865469636,-0.119360855181077,4.72623830808091,8069061.9314323
1.38,-0.0843370597699361,2.72353103777717,-0.12009111416175,4.76755444978839,8068734.15944517
1.39,-0.0855379709115536,2.77120658227505,-0.120817678046729,4.80887631810154,8068406.38744402
1.4,-0.0867461476920209,2.81929534545607,-0.121540515683135,4.85020391397083,8068078.61542867
1.41,-0.0879615528488523,2.86779738459577,-0.122259595915406,4.89153723834431,8067750.84339891
1.42,-0.0891841488080063,2.91671275697922,-0.122974887621001,4.93287629216704,8067423.07135455
1.43,-0.0904138976842163,2.96604151990089,-0.123686359691109,4.97422107638137,8067095.2992954
1.44,-0.0916507612811274,3.0157837306647,-0.124393981030882,5.01557159192692,8066767.52722128
1.45,-0.0928947010914362,3.06593944658397,-0.125097720559689,5.05692783974058,8066439.75513198
1.46,-0.0941456782970331,3.11650872498138,-0.125797547211354,5.09828982075646,8066111.98302731
1.47,-0.0954036537691467,3.16749162318894,-0.126493429934406,5.13965753590587,8065784.21090709
1.48,-0.0966685880684907,3.218888198548,-0.12718533769232,5.18103098611732,8065456.43877112
1.49,-0.0979404414454139,3.27069850840917,-0.127873239463762,5.22241017231646,8065128.66661922
1.5,-0.0992191738400515,3.32292261013234,-0.128557104242834,5.2637950954261,8064800.89445119
1.51,-0.10050474488248,3.3755605610866,-0.129236901039318,5.30518575636615,8064473.12226684
1.52,-0.101797113892873,3.42861241865026,-0.12991259887892,5.34658215605362,8064145.350066
1.53,-0.103096239881662,3.4820782402108,-0.130584166803515,5.38798429540259,8063817.57784847
1.54,-0.104402081549697,3.53595808316482,-0.13125157387139,5.42939217532419,8063489.80561406
1.55,-0.105714597288411,3.59025200491806,-0.131914789157476,5.47080579672614,8063162.03336259
1.56,-0.107033745179986,3.64496006288533,-0.132573781753603,5.51222516051302,8062834.26109387
1.57,-0.108359482997522,3.70008231449046,-0.133228520768755,5.55365026758694,8062506.48880771
1.58,-0.10969176820521,3.75561881716633,-0.133878975329307,5.59508111884699,8062178.71650394
1.59,-0.111030557958503,3.8115696283548,-0.134525114568475,5.63651771518934,8061850.94418236
1.6,-0.112375809104187,3.86793480550669,-0.135166907636098,5.67796005750714,8061523.1718428
1.61,-0.113727478180548,3.92471440608176,-0.135804323712202,5.7194081466902,8061195.39948506
1.62,-0.11508552141767,3.98190848754866,-0.136437331995176,5.76086198362523,8060867.62710898
1.63,-0.116449894737622,4.03951710738492,-0.137065901702014,5.80232156919576,8060539.85471436
1.64,-0.117820553754642,4.09754032307687,-0.137690002068556,5.84378690428219,8060212.08230102
1.65,-0.119197453775328,4.1559781921197,-0.138309602349733,5.88525798976169,8059884.30986879
1.66,-0.120580549798825,4.21483077201731,-0.138924671819809,5.92673482650825,8059556.53741748
1.67,-0.121969796517023,4.2740981202824,-0.139535179772623,5.96821741539259,8059228.76494691
1.68,-0.12336514831475,4.33378029443632,-0.140141095521832,6.00970575728221,8058900.99245691
1.69,-0.124766559269968,4.39387735200914,-0.140742388401155,6.05119985304131,8058573.2199473
1.7,-0.126173983153979,4.45438935053956,-0.141339027764611,6.0926997035308,8058245.44741789
1.71,-0.127587373431626,4.51531634757486,-0.141930982986767,6.13420530960829,8057917.67486852
1.72,-0.129006683261493,4.57665840067095,-0.142518223462973,6.17571667212801,8057589.902299
1.73,-0.130431865496123,4.63841556739223,-0.14310071860961,6.21723379194087,8057262.12970917
1.74,-0.131862872682219,4.70058790531164,-0.143678437864328,6.25875666989439,8056934.35709884
1.75,-0.133299657060862,4.76317547201058,-0.144251350686291,6.30028530683267,8056606.58446785
1.76,-0.134742170567725,4.82617832507891,-0.144819426556413,6.34181970359642,8056278.81181601
1.77,-0.136190364833289,4.88959652211487,-0.145382634977604,6.38335986102288,8055951.03914315
1.78,-0.137644191183065,4.9534301207251,-0.145940945457279,6.42490577994613,8055623.26644911
1.79,-0.139103600637638,5.01767917852456,-0.146494327538336,6.46645746119654,8055295.49373371
1.8,-0.140568543913022,5.08234375313653,-0.147042750791152,6.50801490560093,8054967.72099678
1.81,-0.142038971420933,5.14742390219253,-0.147586184809067,6.54957811398259,8054639.94823815
1.82,-0.143514833269024,5.21291968333236,-0.14812459920862,6.59114708716126,8054312.17545765
1.83,-0.14499607926111,5.27883115420397,-0.14865796362979,6.63272182595313,8053984.40265511
1.84,-0.146482658897408,5.34515837246351,-0.149186247736237,6.67430233117081,8053656.62983037
1.85,-0.14797452137477,5.41190139577521,-0.149709421215542,6.71588860362332,8053328.85698325
1.86,-0.149471615586926,5.47906028181145,-0.150227453779447,6.75748064411604,8053001.08411359
1.87,-0.15097389012472,5.54663508825261,-0.150740315164092,6.79907845345074,8052673.31122123
1.88,-0.152481293276361,5.61462587278711,-0.15124797513026,6.8406820324255,8052345.53830599
1.89,-0.153993773027664,5.68303269311137,-0.151750403463614,6.88229138183476,8052017.76536772
1.9,-0.1555112770623,5.75185560692972,-0.152247569974934,6.92390650246925,8051689.99240625
1.91,-0.157033752762049,5.82109467195441,-0.152739444500359,6.96552739511598,8051362.21942141
1.92,-0.158561147207053,5.89074994590557,-0.153225996901626,7.00715406055825,8051034.44641306
1.93,-0.160093407176069,5.96082148651115,-0.153707197066308,7.04878649957558,8050706.67338102
1.94,-0.161630479146732,6.03130935150691,-0.154183014908051,7.09042471294376,8050378.90032513
1.95,-0.163172309295813,6.10221359863634,-0.154653420366817,7.13206870143476,8050051.12724523
1.96,-0.164718843499481,6.17353428565069,-0.155118383406804,7.1737184658168,8049723.35414117
1.97,-0.166270027333549,6.24527147030886,-0.155577874001558,7.21537400685451,8049395.58101279
1.98,-0.167825806073564,6.31742521037741,-0.156031862171453,7.25703532530842,8049067.80785992
1.99,-0.169386124695279,6.38999556363049,-0.15648031796413,7.29870242193517,8048740.03468242
2,-0.17095092787492,6.46298258784984,-0.156923211454735,7.34037529748755,8048412.26148012
2.01,-0.172520159989468,6.53638634082472,-0.157360512746154,7.38205395271445,8048084.48825288
2.02,-0.174093765116929,6.61020688035186,-0.157792191969253,7.42373838836083,8047756.71500053
2.03,-0.175671687036622,6.68444426423547,-0.158218219283111,7.46542860516775,8047428.94172292
2.04,-0.177253869229453,6.75909855028715,-0.158638564875263,7.50712460387232,8047101.16841991
2.05,-0.178840254878205,6.83416979632587,-0.159053198961932,7.54882638520766,8046773.39509133
2.06,-0.180430786867825,6.90965806017795,-0.159462091788265,7.59053394990294,8046445.62173704
2.07,-0.182025407785707,6.98556339967698,-0.159865213628573,7.63224729868333,8046117.84835689
2.08,-0.183624059921993,7.06188587266381,-0.160262534786565,7.67396643226998,8045790.07495073
