t[s],x[m],y[m],vx[m/s],vy[m/s],mass[kg],tau[-]
449.7000000000337,26080.493622693994,40290.25347139428,-18.247566929681724,-1643.019245710664,974371.8245303676,0.06788620028753506
449.8000000000337,26078.68592091073,40126.1403135143,-18.077017832603246,-1641.1315787997958,973586.0448026755,0.49143437067962364
449.90000000003374,26076.884207666484,39962.357480333434,-18.017132442474683,-1637.8283318086076,972426.2378984587,0.7253546458339596
450.00000000003376,26075.08020723361,39798.97970586351,-18.040004328755213,-1633.7777446992416,971062.0301693378,0.8531889322289427
450.1000000000338,26073.257780451433,39636.04664930036,-18.22426782173724,-1629.3305656314437,969583.026207307,0.9249836254340171
450.2000000000338,26071.404288988375,39473.58142680473,-18.53491463059968,-1624.6522249563,968036.7107506423,0.9670808962582854
450.30000000003383,26069.51003798788,39311.59745077651,-18.942510004969026,-1619.839760282195,966450.8167304328,0.9918337191966105
450.40000000003386,26067.569109989716,39150.09917870992,-19.409279981637653,-1614.9827206659734,964851.8652232244,1.0
450.5000000000339,26065.5801100653,38989.08726417171,-19.889999244148978,-1610.1191453821402,963252.913716016,1.0
450.6000000000339,26063.54654549673,38828.56345592261,-20.335645685717836,-1605.2380824909658,961653.9622088076,1.0
450.7000000000339,26061.476637582047,38668.53050482002,-20.699079146833398,-1600.3295110259305,960055.0107015992,1.0
450.80000000003395,26059.38270751585,38508.99188712409,-20.939300661970858,-1595.3861769592731,958456.0591943908,1.0
450.90000000003397,26057.28130630065,38349.95163459711,-21.01401215200815,-1590.4025252697124,956857.1076871824,1.0
451.000000000034,26055.18546394919,38191.41378806377,-20.958423514604362,-1585.3784653334098,955258.156179974,1.0
451.100000000034,26053.10542077882,38033.37811129934,-20.80043170372121,-1580.3567676442988,953659.2046727656,1.0
451.20000000003404,26051.058499457395,37875.84114486229,-20.469213214232976,-1575.3696643705512,952060.2531655572,1.0
451.30000000003406,26049.05899970662,37718.80079465544,-19.994997507740276,-1570.403502068443,950461.3016583488,1.0
451.4000000000341,26047.117025068863,37562.25569762113,-19.419746377558234,-1565.4509703431436,948862.3501511404,1.0
451.5000000000341,26045.23757716024,37406.205652802906,-18.79447908625423,-1560.5004481822468,947263.398643932,1.0
451.60000000003413,26043.419943932287,37250.651821473926,-18.176332279516764,-1555.5383132898223,945664.4471367236,1.0
451.70000000003415,26041.657664055263,37095.59670130881,-17.622798770244213,-1550.5512016511852,944065.4956295151,1.0
451.8000000000342,26039.93908178109,36941.04385264218,-17.18582274172347,-1545.5284866663333,942466.5441223067,1.0
451.9000000000342,26038.24744101052,36786.99761367374,-16.916407705684747,-1540.4623896843696,940867.5926150983,1.0
452.0000000000342,26036.567800200683,36633.46316121143,-16.796408098375352,-1535.3445246230647,939268.6411078899,1.0
452.10000000003424,26034.889082137823,36480.44153619919,-16.787180628594605,-1530.2162501224072,937669.6896006815,1.0
452.20000000003427,26033.196299243376,36327.92984815248,-16.927828944460465,-1525.1168804671026,936070.7380934731,1.0
452.3000000000343,26031.47267681958,36175.91986318948,-17.236224237949557,-1520.099849629983,934488.1559354232,0.9897624480262693
452.4000000000343,26029.707390307045,36024.40696562329,-17.65286512536016,-1515.1289756619246,932914.833175394,0.9839715294281028
452.50000000003433,26027.89562305717,35873.38960579833,-18.11767249872928,-1510.1735982495793,931345.5976252004,0.981415348194851
452.60000000003436,26026.039103225867,35722.868056257044,-18.565198313044533,-1505.215495412868,929779.0456466659,0.9797370160834813
452.7000000000344,26024.145941260118,35572.84342765221,-18.931619657489986,-1500.246286048358,928216.0702490878,0.9775001871738656
452.8000000000344,26022.230131359644,35423.316881118975,-19.158099004732172,-1495.2654653323336,926658.6890347681,0.9740015299392384
452.9000000000344,26020.30990686144,35274.2906046675,-19.20224498205721,-1490.2627645147663,925109.0974818959,0.9691297990504318
453.00000000003445,26018.3969924825,35125.762768154425,-19.129143789401738,-1485.2783651307186,923570.8234126798,0.9620517334523677
453.10000000003447,26016.50206113701,34977.72902686951,-18.949313454905056,-1480.33741284915,922042.474069823,0.9558447119670117
453.2000000000345,26014.64084659535,34830.18371037094,-18.61214541657336,-1475.4531649856388,920519.6131953264,0.9524121698696094
453.3000000000345,26012.827607767314,34683.1251601912,-18.13238828034002,-1470.5855017973904,918996.2751367969,0.9527106054574211
453.40000000003454,26011.069490511592,34536.553526213436,-17.581172557219713,-1465.7163397776121,917471.291929025,0.9537394979753855
453.50000000003456,26009.36670401071,34390.46997466291,-17.02786500881935,-1460.835515505233,915945.5663500628,0.954203784219789
453.6000000000346,26007.712519109504,34244.87621330646,-16.54184901205476,-1455.937613564502,914421.1350450811,0.9533943325418357
453.7000000000346,26006.093056062942,34099.77425469481,-16.19463046560495,-1451.019586116558,912900.6106678904,0.9509509014725652
453.80000000003463,26004.493082737907,33955.16669464939,-15.999733250370337,-1446.0756004541536,911386.9047626056,0.9466865620756999
453.90000000003465,26002.901369175215,33811.051920498736,-15.917135626900086,-1441.1477415065829,909883.6457175185,0.9401529929519973
454.0000000000347,26001.307200339812,33667.42687668553,-15.941688354018751,-1436.250438132017,908389.466935043,0.9344741074006869
454.1000000000347,25999.700121775302,33524.28740340013,-16.070785645084374,-1431.394732854037,906901.2752132186,0.9307297407803075
454.2000000000347,25998.064624435425,33381.63027972911,-16.35497339878946,-1426.5712367102294,905414.6469965819,0.9297519092571969
454.30000000003474,25996.393471844058,33239.45594041353,-16.711525913680372,-1421.743393155765,903926.2127697817,0.9308814057775129
454.40000000003477,25994.68721939214,33097.76560186291,-17.06252451918417,-1416.903385506166,902437.1165328915,0.9312954333993453
454.5000000000348,25992.954204701025,32956.560897275005,-17.330146911166818,-1412.0470458790696,900949.5649992725,0.930329360779811
454.6000000000348,25991.20897568438,32815.84446487337,-17.45229016643448,-1407.164324016325,899466.4007536602,0.9275855077066514
454.70000000003483,25989.460653045986,32675.616136739103,-17.48322638394206,-1402.2832813426787,897991.79773992,0.9222312290851332
454.80000000003486,25987.720607473675,32535.873974283073,-17.400455723114273,-1397.4216245602865,896526.4934049037,0.9164157439486785
454.9000000000349,25985.997583049604,32396.614649776926,-17.230244240710647,-1392.5932450614544,895069.136637862,0.9114452567646295
455.0000000000349,25984.30033019497,32257.83484748981,-16.972528546344094,-1387.798022871171,893616.6650867793,0.9083899946525624
455.1000000000349,25982.63744365346,32119.53217344248,-16.628865415066002,-1383.0267404732717,892166.0269424268,0.9072433640499764
455.20000000003495,25981.014840325486,31981.705945252048,-16.22603327975251,-1378.2622819043256,890715.2740394574,0.9073151352177237
455.30000000003497,25979.430074157128,31844.35774522416,-15.847661683568353,-1373.4820002788756,889264.4809746586,0.9073402528209136
455.400000000035,25977.87497661156,31707.48956424039,-15.550975455656866,-1368.6818098377003,887816.3426874509,0.9056799288028125
455.500000000035,25976.342708243268,31571.102068634926,-15.322683682927273,-1363.874956054649,886373.9896542317,0.9020617740543534
455.60000000003504,25974.824467787814,31435.19487952443,-15.182404554543794,-1359.0718911049232,884938.9977215535,0.8974580693716846
455.70000000003506,25973.31165483145,31299.766028598136,-15.128129563629386,-1354.2885092629601,883511.6732136053,0.8926627865282556
455.8000000000351,25971.794437478482,31164.81345482327,-15.172173529668411,-1349.5257377486694,882090.4197892998,0.8888658711024848
455.9000000000351,25970.265424217683,31030.33468515962,-15.290132607998135,-1344.7876966364945,880673.5161619993,0.88614546527071
456.00000000003513,25968.720015516014,30896.328395418994,-15.454087016707968,-1340.0628974062845,879258.7778118046,0.8847912796710072
456.10000000003515,25967.15655724341,30762.794390211744,-15.634582726063242,-1335.3400520725093,877845.4429062747,0.883913551573217
456.2000000000352,25965.576717260046,30629.733226088298,-15.798399833619774,-1330.6116412344625,876434.1563223103,0.8826325111186696
456.3000000000352,25963.985361426876,30497.1454961806,-15.913558331703873,-1325.8772990769553,875026.5272836122,0.8803450463333775
456.4000000000352,25962.389294808818,30365.0313278881,-15.960666180585022,-1321.141682924998,873624.2701640876,0.8769853952435885
456.50000000003524,25960.797332884813,30233.388955700495,-15.919619240057019,-1316.423721876044,872228.5818199944,0.8728772184779795
456.60000000003527,25959.21667665378,30102.21687626997,-15.806562310301715,-1311.7207943052586,870838.4182863516,0.8694219476798702
456.7000000000353,25957.655024152667,29971.513529196425,-15.616525011149381,-1307.0334707354564,869453.0327311563,0.8664337529623208
456.8000000000353,25956.117634393682,29841.276881077752,-15.373897589840585,-1302.3664811867134,868071.6203398914,0.8639488971599251
456.90000000003533,25954.606820434958,29711.50612742213,-15.108139587230852,-1297.707536556236,866692.7726112211,0.8623449319471023
457.00000000003536,25953.122112592777,29582.201180787717,-14.847078421824786,-1293.049466344131,865316.5222881254,0.8607204889524568
457.1000000000354,25951.659957827957,29453.362281751175,-14.6215476482142,-1288.3889903654053,863943.7351409025,0.8585545846975864
457.2000000000354,25950.214502151655,29324.989217778366,-14.454556763013324,-1283.7306397281093,862575.6415823492,0.8556191681771314
457.3000000000354,25948.778210720913,29197.08063599107,-14.36291430740753,-1279.0858178729522,861212.9078523585,0.8522670786745014
457.40000000003545,25947.345605834777,29069.635537501374,-14.32604886135015,-1274.4509848969803,859854.8133682016,0.8493656486981803
457.50000000003547,25945.909903707023,28942.65289028552,-14.357021277532404,-1269.8264721585413,858501.0983433255,0.8466266917872596
457.6000000000355,25944.466741376586,28816.131484396323,-14.431623304377439,-1265.2140588919663,857151.4514812697,0.8440824227447851
457.7000000000355,25943.014349659752,28690.07021612503,-14.523917168324983,-1260.6126827129087,855805.3846525017,0.8418434347130727
457.80000000003554,25941.553574377853,28564.468679415048,-14.607752818988677,-1256.0153670998386,854462.5776892265,0.8398046827696158
457.90000000003556,25940.087570203777,28439.326348259874,-14.660041740745568,-1251.4233115517359,853123.5939145488,0.8374136230156768
458.0000000000356,25938.62150394987,28314.642863208028,-14.660662539063187,-1246.834850518463,851788.8935488573,0.8347347369037623
458.1000000000356,25937.161875794125,28190.416719746805,-14.596281557464332,-1242.261434612243,850459.1754154251,0.8316187998432528
458.20000000003563,25935.71167270553,28066.64634989947,-14.502030885966711,-1237.703698473341,849133.7851013528,0.8289121390468008
458.30000000003565,25934.27582001726,27943.331647463656,-14.358526882674955,-1233.147024358162,847811.9457396044,0.8266913385360873
458.4000000000357,25932.857051827898,27820.470493094934,-14.187681893646495,-1228.6115436872108,846494.6746430496,0.8238343005502695
458.5000000000357,25931.455953201646,27698.062237571077,-14.010986262523605,-1224.0825552385588,845180.5378639797,0.8218740675658254
458.6000000000357,25930.070879022456,27576.106118694704,-13.850741791909535,-1219.561188763721,843869.8458253775,0.8197196929946681
458.70000000003574,25928.69852983118,27454.601537065686,-13.723491912765308,-1215.0458162902028,842562.7492136649,0.8174710776530273
458.80000000003577,25927.334315813605,27333.54800253383,-13.642140175762826,-1210.5353453185498,841259.5799348353,0.8150148850385315
458.9000000000358,25925.976907316144,27212.94467900229,-13.574084974610297,-1206.033235315394,839960.7923637454,0.8122745219193755
459.0000000000358,25924.621542356064,27092.78964382937,-13.55364960079005,-1201.5503517292166,838666.475776411,0.8094783247017353
459.10000000003583,25923.265189629994,26973.082803419602,-13.563527260697684,-1197.0684040976473,837375.3679832745,0.8074715132484754
459.20000000003586,25921.906736562672,26853.8237001605,-13.584530673213463,-1192.5910325910006,836088.4385156274,0.8048583473891172
459.3000000000359,25920.546854637716,26735.010383972498,-13.598819249562409,-1188.1331618800218,834806.2527387488,0.8018915965232624
459.4000000000359,25919.187805620968,26616.641326524245,-13.590490167488971,-1183.690574482537,833527.6069173826,0.799677673526563
459.5000000000359,25917.83292341619,26498.71662907385,-13.54882204777041,-1179.2469745039477,832251.829317597,0.7978838595380392
459.60000000003595,25916.48573004104,26381.235531365823,-13.471933751484658,-1174.8109770802605,830980.2326958315,0.7952690347599448
459.70000000003597,25915.145164945523,26264.196625178345,-13.405650955181512,-1170.3890618747582,829713.1028290136,0.7924754822803642
459.800000000036,25913.81394189529,26147.59839423155,-13.31223050232772,-1165.9823094679343,828449.8863144981,0.7900280332584415
459.900000000036,25912.493554430628,26031.439875656488,-13.203874646610235,-1161.5851857506286,827189.9543730598,0.7879738289487447
460.00000000003604,25911.18414562506,25915.720292032256,-13.094088055698574,-1157.1958362423336,825933.3316135559,0.7859042340175787
460.10000000003606,25909.884655212052,25800.438936962768,-12.994904130077998,-1152.8135506948688,824680.2527924695,0.7836878200729047
460.2000000000361,25908.593200966672,25685.595260061953,-12.914542453787561,-1148.4367690081633,823431.0278094033,0.781277591868455
460.3000000000361,25907.307629707626,25571.18830513377,-12.855712590448599,-1144.0695492818043,822186.1499269364,0.7785588723952438
460.40000000003613,25906.026124679694,25457.217044111087,-12.815050279310052,-1139.7126102268421,820945.6258458609,0.7758359621808094
460.50000000003615,25904.751654725707,25343.68015463729,-12.744699539875848,-1135.3688947379512,819709.384915233,0.773157237761582
460.6000000000362,25903.48235133214,25230.576419829198,-12.693033935682308,-1131.0373480809324,818477.0703507531,0.7707016497525565
460.7000000000362,25902.216917775648,25117.9047644319,-12.654335564927264,-1126.7165539729951,817248.3902814861,0.7684286006973351
460.8000000000362,25900.95485263845,25005.664245822558,-12.620651371981428,-1122.4051860934348,816023.234893941,0.7662242300794467
460.90000000003624,25899.69643594908,24893.853969430857,-12.584166893690364,-1118.1027639169952,814801.6691348518,0.7639792411353123
461.00000000003627,25898.44252289808,24782.473048756376,-12.539130509994836,-1113.8092067448183,813583.8310187173,0.7616479365660686
461.1000000000363,25897.194214030293,24671.520527291308,-12.483088677864213,-1109.5252146506677,812369.8807776584,0.7592164212523734
461.2000000000363,25895.952500927975,24560.995391958993,-12.417131023192322,-1105.251353323136,811159.9021362157,0.7567325437875104
461.30000000003633,25894.71799349556,24450.896579698707,-12.345074324144504,-1100.98812260288,809953.9133196301,0.7542372680777572
461.40000000003636,25893.490805422167,24341.22299499215,-12.271880733925862,-1096.7358470655734,808751.8709754851,0.751769105395599
461.5000000000364,25892.270610955617,24231.973531708747,-12.201944665498724,-1092.4946328340113,807553.6895135766,0.7493544716689944
461.6000000000364,25891.056824464733,24123.14709584281,-12.137864908853494,-1088.2643586593622,806359.2680726253,0.747002917578548
461.7000000000364,25889.848821987358,24014.74261840165,-12.080024773759986,-1084.0447744116054,805168.5203013283,0.744705368442327
461.80000000003645,25888.64612800658,23906.759060224394,-12.026939807776136,-1079.8355817725658,803981.392888816,0.7424411604482779
461.90000000003647,25887.448519061494,23799.195406865587,-11.976089450863375,-1075.6365335880837,802797.8739282782,0.7401843990904095
462.0000000000365,25886.25603119464,23692.050655026065,-11.924878668535587,-1071.4475183952052,801617.988195082,0.7379121429743307
462.1000000000365,25885.06888834043,23585.32379658407,-11.871428542095327,-1067.2685844199352,800441.7809170206,0.7356116009515332
462.20000000003654,25883.887388248717,23479.01380618683,-11.815000917135448,-1063.099903972403,799269.2975298418,0.733282642965129
462.30000000003656,25882.711789034965,23373.11963585549,-11.755992137522687,-1058.9417033133955,798100.56708775,0.7309355141934986
462.4000000000366,25881.542232113814,23267.64021700953,-11.695569211503013,-1054.7941884596034,796935.594091663,0.7285855705035796
462.5000000000366,25880.378719119737,23162.574467732426,-11.635129940752725,-1050.6574927710494,795774.3597397582,0.7262473856585377
462.60000000003663,25879.22113897344,23057.9213018941,-11.575801462957193,-1046.5316583832637,794616.8302403853,0.7239303344438832
462.70000000003665,25878.069325092274,22953.679637002067,-11.51813881164888,-1042.4166489203255,793462.9680703771,0.7216367505870164
462.8000000000367,25876.923116975562,22849.848398589387,-11.462081167108797,-1038.3123841268039,792312.7421399716,0.7193626105733307
462.9000000000367,25875.782404646,22746.426502114777,-11.407123295617955,-1034.2189647460987,791166.1338679364,0.7171000914449298
463.0000000000367,25874.647146199113,22643.412895476496,-11.352584468875104,-1030.1360663827875,790023.115902064,0.7148546786562427
463.10000000003674,25873.517357879056,22540.806521382074,-11.297883200551267,-1026.0637409442345,788883.7035605977,0.7125996856875491
463.20000000003677,25872.393087614542,22438.606315285415,-11.242702645145094,-1022.0020609665798,787747.909371821,0.7103368574071214
463.3000000000368,25871.274384699824,22336.81120391256,-11.187029147200796,-1017.9511137285567,786615.7401497714,0.7080697675604981
463.4000000000368,25870.161276929066,22235.420105646175,-11.131077707592576,-1013.910982663834,785487.1947211447,0.7058034115099716
463.50000000003683,25869.053761164963,22134.4319326479,-11.075157641034364,-1009.8817299827514,784362.2639891239,0.7035427446982901
463.60000000003686,25867.951807117817,22033.845593781807,-11.019540471463765,-1005.8633886609462,783240.9332755487,0.701291257752335
463.7000000000369,25866.855369487184,21933.65999721157,-10.964376306322638,-1001.8559657023753,782123.1858151093,0.6990502559961367
463.8000000000369,25865.76440190772,21833.874051873587,-10.909675794649804,-997.8594533798384,781009.0059795863,0.6968190282820416
463.9000000000369,25864.678867254443,21734.486667615427,-10.855346532780928,-993.8738425815989,779898.3811807524,0.69459567336904
464.00000000003695,25863.598741662656,21635.496754328513,-10.801255917871487,-989.8991328691575,778791.3021207573,0.6923781334232005
464.10000000003697,25862.524012627557,21536.9032206877,-10.747290350988905,-985.9353364081372,777687.7617462364,0.6901650047208797
464.200000000037,25861.45467360106,21438.704973091804,-10.693390264980094,-981.9824759589546,776587.7536461661,0.6879558855357945
464.300000000037,25860.390717990074,21340.900905721075,-10.639556109843952,-978.0406737072943,775491.2706407002,0.6857512566970542
464.40000000003704,25859.33213534364,21243.489924699,-10.58582646432453,-974.1098102207785,774398.2926344133,0.6835591957351773
464.50000000003706,25858.27890984616,21146.470931129144,-10.532254974777858,-970.1899356985414,773308.8156199054,0.6813696410406425
464.6000000000371,25857.231021412128,21049.842823310264,-10.478884340350561,-966.2810781887915,772222.8311843389,0.6791853478174057
464.7000000000371,25856.188447996283,20953.6044979448,-10.425734158452231,-962.3832536546109,771140.3291195919,0.677007438854089
464.80000000003713,25855.151167861084,20857.75485069044,-10.372801351970626,-958.496472543633,770061.2988439448,0.6748361478022477
464.90000000003715,25854.11916095435,20762.2927762861,-10.32006906735092,-954.6207440433864,768985.730036043,0.6726713118271341
