time[s],x[m],y[m],vx[m/s],vy[m/s],theta[rad],theta_dot[rad/s],alpha[rad],gamma[rad],mass[kg],masspropellant[kg],u1_vref
449.7000000000337,26080.49571643828,40290.80386210355,-18.226629486823274,-1637.5153386179727,1.5637732396589805,-0.03219000055601298,-3.1374855385199765,4.701258778178957,972881.5157304356,526046.8717167241,0.9998723032768357
449.8000000000337,26078.692271374315,40127.54061888573,-18.034450639660605,-1632.6324321782347,1.5603125274174303,-0.034607122415502234,-3.1410306616304453,4.701343189047876,971287.2131231215,524452.56910941,0.9938138984663887
449.90000000003374,26076.896594963186,39964.768005383594,-17.956764111296568,-1627.7261350213837,1.5568261447384444,-0.03486382678986026,-3.14453147396493,4.7013576187033745,969697.4622598602,522862.8182461487,0.9877570782497247
450.00000000003376,26075.10000568055,39802.48394360986,-17.96589282636721,-1622.8406177372844,1.5534843372990832,-0.03341807439361171,-3.1478344500412367,4.70131878734032,968112.261773377,521277.6177596655,0.9817020774096914
450.1000000000338,26073.28608542077,39640.684139287696,-18.13920259779721,-1617.9980432216323,1.550576862908804,-0.029074743902793434,-3.150601694327024,4.701178557235828,966531.6102435637,519696.9662298522,0.9756489662496737
450.2000000000338,26071.441877583256,39479.36517865302,-18.44207837510633,-1613.1896063467761,1.5483328792125233,-0.022439836962807325,-3.152624540396518,4.700957419609042,964955.5062608118,518120.8622471004,0.9695977307980677
450.30000000003383,26069.557363013748,39318.52410935181,-18.845145695076575,-1608.4106930120206,1.546927716104279,-0.01405163108244239,-3.153745174914415,4.700672891018694,963383.9484027841,516549.3043890727,0.9635483879929083
450.40000000003386,26067.62636178615,39158.15879413871,-19.31001227598063,-1603.653152131024,1.5464678882779272,-0.004598278263515868,-3.153880409203879,4.700348297481806,961816.9352227047,514982.2912089933,0.9575009703533031
450.5000000000339,26065.64721122413,38998.26810403974,-19.791505620193035,-1598.9069009897462,1.5469803493220542,0.005124610441270451,-3.153031115591072,4.700011464913127,960254.4652274373,513419.821213726,0.9514555395691402
450.6000000000339,26063.623056872108,38838.8519776198,-20.24154352024599,-1594.1612641993227,1.5484085054366532,0.01428156114599079,-3.1512838574289312,4.6996923628655844,958696.5368497608,511861.8928360495,0.9454121942225442
450.7000000000339,26061.561700766044,38679.911339786995,-20.61356106062777,-1589.4063783280221,1.5506157623010255,0.022072568643722187,-3.1488045992976614,4.699420361598687,957143.148418576,510308.50440486474,0.9393710725391999
450.80000000003395,26059.47502771716,38521.44784797069,-20.86673048885411,-1584.6349181630808,1.5533961603668063,0.02780398065780805,-3.14582541831886,4.699221578685666,955594.2981310392,508759.654117328,0.9333323498265407
450.90000000003397,26057.378834613537,38363.46354229401,-20.961931036208533,-1579.8430567667447,1.556479223025347,0.030830626585406366,-3.1426421729849485,4.6991213960102955,954049.9840316073,507215.34001789603,0.9272962292755298
451.000000000034,26055.286974504354,38205.96107136319,-20.91860109184194,-1575.0247093081687,1.559623323275008,0.03144100249661124,-3.1394849948397923,4.6991083181148,952510.204000869,505675.5599871577,0.9212629289384822
451.100000000034,26053.209613465147,38048.93875211807,-20.773610392043697,-1570.2231924512241,1.5626434753387008,0.030201520636927468,-3.136516558582177,4.699160033920878,950974.955737736,504140.31172402465,0.9152326905659272
451.20000000003404,26051.163350292445,37892.39142215351,-20.46263172702931,-1565.4732996455778,1.5652578189817477,0.02614343643046735,-3.1340606948165592,4.699318513798307,949444.2368840978,502609.5928703865,0.9092055900347393
451.30000000003406,26049.162810658127,37736.31516627265,-20.005396343179505,-1560.7625588085393,1.5672204553959443,0.0196263641419665,-3.132351520408466,4.69957197580441,947918.0451263776,501083.4011126663,0.9031815680860147
451.4000000000341,26047.218568197677,37580.70672790551,-19.442424604482632,-1556.0843836714387,1.5683547414040007,0.01134286008056406,-3.131540435190006,4.699895176594007,946396.3781611453,499561.73414743395,0.8971606112178148
451.5000000000341,26045.33628314938,37425.56394679844,-18.82285048298205,-1551.4278110707266,1.5685671627361586,0.0021242133215787495,-3.131689814563332,4.700256977299491,944879.2336773966,498044.5896636852,0.8911427295087051
451.60000000003413,26043.51601917907,37270.88598313786,-18.202639703069693,-1546.779636605818,1.5678576335920391,-0.007095291441194716,-3.1327638014615022,4.700621435053542,943366.6093258186,496531.9653121073,0.885127973934343
451.70000000003415,26041.75212585822,37116.67332202928,-17.638933208513397,-1542.126611085783,1.566320402283602,-0.015372313084372119,-3.1346310191398903,4.700951421423492,941858.5026811012,495023.85866738984,0.8791164456215519
451.8000000000342,26040.033714003406,36962.92754222274,-17.18411854814747,-1537.4577980654772,1.5641352921218357,-0.021851101617662474,-3.1370771843938607,4.701212476515696,940354.9112036391,493520.2671899277,0.8731082966578343
451.9000000000342,26038.34510410092,36809.65090436036,-16.886099024845905,-1532.766378623757,1.5615587597013816,-0.025765324204540252,-3.1398139195939416,4.701372679295323,938855.8322075568,492021.18819384533,0.8671037216791406
452.0000000000342,26036.669840857317,36656.84697145909,-16.752632436035924,-1528.0393290126933,1.5588610376996725,-0.026977220017090766,-3.1425648994205617,4.701425937120234,937361.2628404741,490526.61882676266,0.8611029422463605
452.10000000003424,26034.99684601162,36504.51559459611,-16.72994845695993,-1523.3137686298255,1.5562310077435952,-0.026300299560773746,-3.1451758124266993,4.701406820170295,935871.2000447123,489036.5560310008,0.8551062315421982
452.20000000003427,26033.31283533803,36352.65269698963,-16.84010673590279,-1518.6289760648274,1.5538878720639473,-0.023431356796478748,-3.147412543044633,4.70130041510858,934385.640666461,487550.9966527495,0.8491137174847683
452.3000000000343,26031.59975288033,36201.25396451822,-17.130824576988037,-1513.9873247141422,1.552117678036311,-0.017701940276363334,-3.1489567468917383,4.701074424928049,932904.5815726675,486069.93755895604,0.8431253724527477
452.4000000000343,26029.845843686468,36050.31634691642,-17.539091938632332,-1509.3761760179443,1.5511067358559811,-0.010109421803298376,-3.1496626742275584,4.70076941008354,931428.0196595514,484593.37564584,0.8371411574948013
452.50000000003433,26028.04513693576,35899.83779971475,-18.00706750706436,-1504.7854720167607,1.5509487228943866,-0.0015801296159454522,-3.1494742939754423,4.700423016869829,929955.9518164438,483121.3078027324,0.8311610817773256
452.60000000003436,26026.19810466975,35749.81753368699,-18.47032266009168,-1500.2026602776002,1.551635230843819,0.00686507949432579,-3.1484424865530842,4.700077717396903,928488.3748968863,481653.73088317487,0.8251851929236382
452.7000000000344,26024.311660758198,35600.255973161744,-18.864439115518774,-1495.615605252466,1.5530567785930365,0.014215477492173468,-3.146719710485614,4.69977648907865,927025.2856819034,480190.64166819194,0.8192135874293052
452.8000000000344,26022.398613062152,35451.154429503724,-19.13047696046513,-1491.0154365801825,1.5550124728651171,0.019556942720806318,-3.1445467092288375,4.699559182093955,925566.6808440862,478732.0368303748,0.8132464095822602
452.9000000000344,26020.478349677476,35302.51604782289,-19.202633846779168,-1486.383816808294,1.5572025399222609,0.02190067057143779,-3.142268131327268,4.699470671249529,924112.5569210789,477277.9129073675,0.807283838951089
453.00000000003445,26018.562095270456,35154.342225825,-19.162544070186602,-1481.738219978946,1.559445361941266,0.02242822019005064,-3.140011863283186,4.699457225224452,922662.9102602106,475828.26624649914,0.8013261287801887
453.10000000003447,26016.66111800701,35006.63122534053,-19.009772634439447,-1477.11000484474,1.561558715309686,0.02113353368419978,-3.1379614041418193,4.699520119451505,921217.7370707403,474383.09305702883,0.7953734627935714
453.2000000000345,26014.789230790117,34859.37831762171,-18.71887216895608,-1472.5290771881507,1.5633253672325684,0.017666519228824038,-3.136352241773392,4.699677609005961,919777.0335187698,472942.38950505824,0.7894258984191773
453.3000000000345,26012.96263249837,34712.57908030644,-18.265982917477228,-1467.9923731527724,1.5644979934160286,0.011726261834600644,-3.1354487967585696,4.699946790174598,918340.7958188182,471506.1518051066,0.7834833712296796
453.40000000003454,26011.189975684094,34566.23088745661,-17.72656814275096,-1463.4819284982966,1.564944348211809,0.004463547957803829,-3.1353326265813495,4.700276974793159,916909.0202260853,470074.37621237384,0.7775458270929636
453.50000000003456,26009.47305902628,34420.33242882818,-17.169166578145116,-1458.9845862842608,1.5646371578420186,-0.0030719036979035535,-3.1359844781454287,4.7006216359874475,915481.702983158,468647.05896944646,0.7716132827931304
453.6000000000346,26007.806707067033,34274.88375756156,-16.66351959246266,-1454.486712666161,1.5636550660185509,-0.009820918234676634,-3.1372777831748384,4.700932849193389,914058.8402807916,467224.19626708014,0.765685807299449
453.7000000000346,26006.178848443073,34129.88612872926,-16.278586239586758,-1449.9762883230371,1.5621799712981208,-0.014750947204299635,-3.138982685939271,4.701162657237392,912640.4282167832,465805.78420307173,0.7597635243083607
453.80000000003463,26004.572445845184,33985.343034991056,-16.064025978872877,-1445.4309373820545,1.5604674605088602,-0.017125107892605154,-3.14080831879631,4.7012757793051705,911226.4627593383,464391.8187456268,0.7538466062617555
453.90000000003465,26002.97685378803,33841.25585785659,-15.955920571536392,-1440.8717713447004,1.558682689309871,-0.017847711989892295,-3.142632947341195,4.701315636651066,909816.9396781711,462982.2956644596,0.7479353172838901
454.0000000000347,26001.380990278718,33697.62365803483,-15.958635093113434,-1436.3219982176342,1.55699623889571,-0.01686450414161103,-3.1442824344209246,4.701278673316635,908411.8546089496,461577.21059523814,0.7420298357446451
454.1000000000347,25999.774479184573,33554.44314217277,-16.065110941459118,-1431.8051586205663,1.555566465512686,-0.014297733830240406,-3.1456028061448453,4.701169271657531,907011.2031249299,460176.55911121843,0.7361302446931248
454.2000000000347,25998.142109370474,33411.70962400758,-16.323698140996566,-1427.3351816519112,1.5546163132150403,-0.009501522976456532,-3.1463366802126793,4.70095299342772,905614.980810394,458780.33679668256,0.7302365294574309
454.30000000003474,25996.474600413854,33269.42056753663,-16.675089566180365,-1422.8905647094498,1.5542810132866272,-0.0033529992841309563,-3.146389338368963,4.7006703516555906,904223.1833050376,457388.5392913261,0.7243486163010273
454.40000000003477,25994.77066351918,33127.57476405496,-17.03936894677084,-1418.4580348167497,1.5545790046568042,0.0029799137017697515,-3.145797953523963,4.700376958180767,902835.8062386188,456001.16222490725,0.7184665184470749
454.5000000000348,25993.036730952514,32986.17220830788,-17.339325666655398,-1414.0255574708126,1.5554166173418935,0.008376126850893173,-3.144710592687031,4.700127210028924,901452.8451905386,454618.201176827,0.7125903029041196
454.6000000000348,25991.28702189893,32845.215138805754,-17.497090535847114,-1409.5706950212334,1.5565890504744404,0.01172433132546935,-3.143387503909927,4.699976554384367,900074.2956528475,453239.65163913596,0.7067200859055776
454.70000000003483,25989.531436038764,32704.70516069746,-17.555858601673464,-1405.0997810829283,1.5579498189704661,0.013607684960257539,-3.14194542582539,4.699895244795856,898700.152960299,451865.5089465875,0.7008560767604983
454.80000000003486,25987.7805914287,32564.642173926648,-17.508446100657864,-1400.6298677081254,1.559341610529299,0.01391791558832948,-3.140547611973675,4.699889222502974,897330.4123099023,450495.7682961907,0.6949984587595934
454.9000000000349,25986.044221169115,32425.025008541634,-17.363702595844824,-1396.1716538501435,1.5606198177118904,0.012782071825914914,-3.13933315065778,4.69995296836967,895965.0688143697,449130.4248006582,0.6891473440727365
455.0000000000349,25984.331577709156,32285.850545078833,-17.12643459958441,-1391.7446346279987,1.5616478883332745,0.01028070621384145,-3.138435982506932,4.700083870840206,894604.1175361143,447769.47352240275,0.6833027996318415
455.1000000000349,25982.65089132676,32147.115357506467,-16.80686382395948,-1387.3518757236661,1.5623059553426064,0.006580670093319502,-3.1379692693229897,4.700275224665596,893247.5535493479,446412.90953563637,0.6774648097361899
455.20000000003495,25981.00963750395,32008.81632910057,-16.412538228122347,-1382.990284058971,1.5624879600033632,0.0018200466075687372,-3.138034149014916,4.700522109018279,891895.3719508555,445060.7279371439,0.6716333443490745
455.30000000003497,25979.407236077408,31870.95275246265,-16.024014265429447,-1378.6357663791753,1.5622017962201098,-0.0028616378325333315,-3.1385646126924898,4.7007664089126,890547.5678513463,443712.92383763473,0.6658083849415335
455.400000000035,25977.835985898048,31733.525502089364,-15.712501793623174,-1374.272503732853,1.5615554463127361,-0.006463499073735811,-3.139400708956157,4.700956155268893,889204.1363000283,442369.49228631664,0.6599900133514152
455.500000000035,25976.289014402646,31596.535728889514,-15.469714954029914,-1369.8977319985001,1.5606476816843815,-0.009077646283545862,-3.140449172973101,4.701096854657482,887865.0722347288,441030.4282210172,0.6541783777877241
455.60000000003504,25974.757733342605,31459.98450150671,-15.312810600418148,-1365.5122738280159,1.5596017130619506,-0.010459686224309097,-3.1415737696012886,4.701175482663239,886530.3704731262,439695.7264594146,0.6483736381283551
455.70000000003506,25973.231399403343,31323.871530364657,-15.263339392640498,-1361.1297114205324,1.5585698122477696,-0.010319008141811149,-3.14260590937387,4.70117572162164,885200.02571535,438365.3817016384,0.6425759507904207
455.8000000000351,25971.70222583633,31188.1952555394,-15.291735670159536,-1356.7627482526004,1.5576634071548923,-0.009064050928773592,-3.1434552990149673,4.70111870616986,883874.032587444,437039.3885737323,0.6367854143571243
455.9000000000351,25970.16254540986,31052.953265432527,-15.396804264658694,-1352.4199010687296,1.5569905938031865,-0.0067281335170584645,-3.144014245375342,4.701004839178529,882552.3856824401,435717.7416687285,0.6310020727553465
456.00000000003513,25968.606914679316,30918.143155909125,-15.55630730546151,-1348.1010952340152,1.5566275086038979,-0.0036308519928856483,-3.1442225620268984,4.700850070630796,881235.079588381,434400.4355746693,0.625225932624959
456.10000000003515,25967.033176787372,30783.763241657707,-15.737378919451615,-1343.7991425141965,1.556604116949265,-0.00023391654632846232,-3.144074289273091,4.700678406222356,879922.1088889474,433087.4648752357,0.6194569997694697
456.2000000000352,25965.442323837597,30649.812816655005,-15.908529497748429,-1339.5042500270313,1.5569063154941865,0.0030219854492131576,-3.143606792457272,4.700513107951458,878613.4681411369,431778.82412742527,0.6136953096954338
456.3000000000352,25963.83843199769,30516.291922072203,-16.038918399078632,-1335.2089458280047,1.557477241617696,0.005709261235095535,-3.1429000254916977,4.700377267109394,877309.1518442966,430474.5078305849,0.6079409391161466
456.4000000000352,25962.22821572892,30383.200892976445,-16.102162687699266,-1330.9102909575677,1.558223821766498,0.007465801488019504,-3.1420671402862306,4.700290962052729,876009.1544163633,429174.51040265156,0.6021939963605116
456.50000000003524,25960.620124531877,30250.539083333475,-16.08091197041675,-1326.618096429719,1.559029368504376,0.008055467378778674,-3.1412384713206176,4.700267839824994,874713.470184577,427878.82617086533,0.5964546021153065
456.60000000003527,25959.021394319938,30118.30523631602,-15.987302119400914,-1322.338470174531,1.5597932796949066,0.007639111905305678,-3.140506115775368,4.7002993954702745,873422.0934175412,426587.4494038295,0.5907228344058564
456.7000000000353,25957.440127428617,29986.49821673637,-15.812668913204833,-1318.0701957965152,1.5604045544145635,0.006112747196569438,-3.1399881677878865,4.70039272220245,872135.0183455269,425300.37433181517,0.5849987442395563
456.8000000000353,25955.88195325887,29855.11563403972,-15.58174169746067,-1313.8258269664802,1.5607859094042507,0.003813549896871636,-3.1397438040309957,4.700529713435246,870852.2391570682,424017.5951433564,0.579282387153836
456.90000000003533,25954.349660551663,29724.155770981703,-15.322927072070238,-1309.5986305801903,1.5608990395766853,0.0011313017243469018,-3.1397899989100173,4.700689038486702,869573.7500405244,422739.1060268126,0.5735737633814935
457.00000000003536,25952.843047386086,29593.617602814786,-15.066131655757674,-1305.3816816691524,1.560746450970162,-0.0015258860652324724,-3.1401014890068386,4.700847939977001,868299.5451628672,421464.9011491553,0.5678729013821255
457.1000000000354,25951.358895352812,29463.50078547694,-14.841520332730818,-1301.1681733784553,1.560371404982164,-0.0037504598799801008,-3.140611765576679,4.700983170558843,867029.6186476299,420194.97463391797,0.5621798589572311
457.2000000000354,25949.891581644206,29333.805141154917,-14.673137086069225,-1296.95644322022,1.5598493319435687,-0.0052207303859541105,-3.141226615394923,4.7010759473384915,865763.9645530328,418929.32053932094,0.5564947230162909
457.3000000000354,25948.433682554587,29204.529638776927,-14.578990896190696,-1292.7550237798862,1.5592791682201588,-0.005701637234099953,-3.1418328319030104,4.701112000123169,864502.5768668397,417667.9328531279,0.5508175873130481
457.40000000003545,25946.97970179473,29075.673482455994,-14.539807598550423,-1288.5615632093393,1.5587349578674332,-0.005442103527254793,-3.1423707505520873,4.7011057084195205,863245.4495347927,416410.8055210809,0.5451485077639133
457.50000000003547,25945.522557651977,28947.235478720162,-14.571441427556088,-1284.3800373583224,1.558310288729127,-0.004246691383063,-3.1427340616547226,4.7010443503838495,861992.5764533341,415157.9324396223,0.5394875499702332
457.6000000000355,25944.05760355847,28819.21431910154,-14.649540935056413,-1280.2115961862328,1.5580664346618776,-0.002438540672493685,-3.1428799829407197,4.700946417602597,860743.9514832036,413909.3074694918,0.5338347614397776
457.7000000000355,25942.582919741944,28691.608435919326,-14.746838165247654,-1276.0588318221128,1.5580285272403225,-0.00037907421555012687,-3.1428044172069356,4.700832944447258,859499.5684537806,412664.9244400689,0.5281901839024692
457.80000000003554,25941.099223476464,28564.416884142578,-14.836962654792877,-1271.9155177674897,1.5581869960304986,0.0015846879017606375,-3.1425374598396867,4.700724455870185,858259.4211722496,411424.77715853794,0.5225538468924364
457.90000000003556,25939.609665579836,28437.63881686182,-14.895578966267747,-1267.7806728075745,1.5585004219125846,0.003134258820860387,-3.1421397647625726,4.700640186675157,857023.5034034883,410188.85938977666,0.5169258067053608
458.0000000000356,25938.119503982834,28311.273712887298,-14.9016159700064,-1263.6510397452237,1.5589002197849005,0.003997978723157806,-3.141696798417841,4.700597018202742,855791.8088672587,408957.16485354706,0.5113061233749041
458.1000000000356,25936.635328434615,28185.320268820018,-14.841755482210955,-1259.5344406728077,1.5593008565334874,0.00400636748586943,-3.1413051442620388,4.700606000795526,854564.3312277657,407729.687214054,0.5056948708287947
458.20000000003563,25935.160096145053,28059.776821537966,-14.752322895614586,-1255.4344728205203,1.5596626332375256,0.0036177670403816733,-3.140976117033251,4.700638750270777,853341.064120188,406506.4201064763,0.5000920876905854
458.30000000003565,25933.698794966247,27934.64296235215,-14.613011788058191,-1251.3385918581473,1.5599212167164787,0.0025858347895309757,-3.1407903906039376,4.700711607320416,852122.0011632765,405287.35714956484,0.4944977958204544
