time[s],x[m],y[m],vx[m/s],vy[m/s],theta[rad],theta_dot[rad/s],gamma[rad],alpha[rad],mass[kg],mass_propellant[kg]
356.2000000000125,11488.73356637932,47510.860965342494,-149.53540787429054,-1193.1178692934736,1.3960652763714725,-0.001780673091650477,4.587707470736229,-3.191642194364756,1559904.7503675763,1184077.977519661
356.3000000000125,11473.872460318276,47391.960737835594,-148.61106061043134,-1189.0022750689864,1.3959014108947547,-0.001638654767176561,4.588045764592961,-3.1921443536982057,1557666.2486585919,1181839.4758106766
356.40000000001254,11459.104495186739,47273.47268842581,-147.67965131536607,-1184.8804940977952,1.3957543789970894,-0.0014703189766533957,4.588391665518953,-3.192637286521864,1555427.75964492,1179600.9867970047
356.50000000001256,11444.431102823566,47155.39729672976,-146.73392363173429,-1180.7539169605243,1.395630743918921,-0.0012363507816826672,4.58875145640451,-3.193120712485589,1553189.3101820294,1177362.537334114
356.6000000000126,11429.853794288592,47037.73502222694,-145.7730853497347,-1176.6227450282502,1.3955375404919663,-0.000932034269546954,4.589125975122274,-3.1935884346303074,1550950.9168714825,1175124.1440235672
356.7000000000126,11415.37395864111,46920.48634392884,-144.79835647482915,-1172.4867829810125,1.3954812146351656,-0.0005632585680061497,4.58951434026454,-3.1940331256293746,1548712.5892347638,1172885.8163868485
356.80000000001263,11400.992854079623,46803.65176416578,-143.81104561486683,-1168.345797630633,1.3954675946320056,-0.00013620003160065423,4.589915579637206,-3.1944479850052003,1546474.3309339825,1170647.5580860672
356.90000000001265,11386.711611263652,46687.231809326106,-142.8124281597101,-1164.1995483966962,1.3955019267180313,0.0003433208602555793,4.590328734875616,-3.1948268081575844,1544236.144410545,1168409.3715626297
357.0000000000127,11372.531240250783,46571.2270296603,-141.80371012870455,-1160.0477966580256,1.3955889283735705,0.0008700165553930492,4.590752893347785,-3.1951639649742147,1541998.0294203106,1166171.2565723953
357.1000000000127,11358.452637369994,46455.63799904738,-140.78602880789694,-1155.8903061291978,1.3957328397513495,0.0014391137777908793,4.591187188452523,-3.195454348701173,1539759.9852308575,1163933.2123829422
357.2000000000127,11344.476590842525,46340.46531448969,-139.76046527469376,-1151.7268455769051,1.3959374672694027,0.0020462751805325648,4.591630789998049,-3.195693322728646,1537522.0091566388,1161695.2363087235
357.30000000001274,11330.603783621702,46225.70959641447,-138.72807220822938,-1147.5571807521928,1.3962062109685398,0.0026874369913717053,4.592082880113288,-3.1958766691447478,1535284.0982679669,1159457.3254200516
357.40000000001277,11316.834788005459,46111.37149002161,-137.68995616243842,-1143.381063928574,1.3965420474562389,0.0033583648769912483,4.592542581435936,-3.1960005339796966,1533046.2489027325,1157219.4760548172
357.5000000000128,11303.170036474434,45997.45167198351,-136.64751531025624,-1139.1981803810083,1.3969473856483796,0.004053381921408312,4.5930087446881895,-3.1960613590398097,1530808.4559339825,1154981.6830860672
357.6000000000128,11289.6098012944,45883.950856006806,-135.60235180033087,-1135.0081597670312,1.3974239676245461,0.004765819761665908,4.593480020914843,-3.1960560532902966,1528570.7093519513,1152743.936504036
357.70000000001284,11276.15421730056,45770.86978844316,-134.55583993839662,-1130.8106756364393,1.397972997357651,0.005490297331046697,4.593955244584056,-3.1959822472264054,1526332.9984144513,1150506.225566536
357.80000000001286,11262.80327788157,45658.20924853088,-133.50939418989236,-1126.6053991227548,1.3985951267984502,0.0062212944079932464,4.594433197557299,-3.1958380707588487,1524095.3153089825,1148268.5424610672
357.9000000000129,11249.55683064634,45545.97004864711,-132.46447235232145,-1122.3919988377036,1.3992904388360392,0.0069531203758895375,4.59491260521476,-3.1956221663787208,1521857.65417617,1146030.8813282547
358.0000000000129,11236.414583340444,45434.153032591166,-131.4224730589588,-1118.170160559455,1.4000584826782754,0.007680438422361957,4.595392227748388,-3.195333745070112,1519620.0098890606,1143793.2370411453
358.1000000000129,11223.376116057187,45322.75907386588,-130.38467283256227,-1113.9395872528632,1.400898339526269,0.008398568479936456,4.5958709164738645,-3.1949725769475954,1517382.3734144513,1141555.600566536
358.20000000001295,11210.440888918478,45211.78907217876,-129.35227138709524,-1109.7000168711072,1.401808665061127,0.009103255348580032,4.59634757707448,-3.1945389120133534,1515144.7418226544,1139317.968974739
358.300000000013,11197.608248148252,45101.24395104132,-128.32640770225726,-1105.4512113744263,1.4027877215937155,0.009790565325885127,4.596821155038313,-3.1940334334445977,1512907.11511367,1137080.3422657547
358.400000000013,11184.877432430765,44991.12465490505,-127.30815717486009,-1101.1929613626778,1.4038334106685235,0.010456890748079777,4.597290639355074,-3.19345722868655,1510669.4984144513,1134842.725566536
358.500000000013,11172.247578262792,44881.43214609042,-126.29854167973691,-1096.9250881462829,1.4049432995330189,0.011098888644952992,4.597755054412322,-3.192811754879303,1508431.9029554669,1132605.1301075516
358.60000000001304,11159.717726692745,44772.167401254555,-125.29851570047714,-1092.6474483586514,1.406114653820579,0.011713542875601144,4.598213473575099,-3.1920988197545195,1506194.34558242,1130367.5727345047
358.70000000001306,11147.286828962768,44663.33140799547,-124.30897729977767,-1088.3599325907983,1.4073444635443406,0.012298097237615218,4.598665009939392,-3.191320546395051,1503956.8516859356,1128130.0788380203
358.8000000000131,11134.953754468082,44554.92516235027,-123.33074494685117,-1084.0624564519762,1.4086294789324336,0.01285015388093024,4.599108837178379,-3.1904793582459456,1501719.4466566388,1125892.6738087235
358.9000000000131,11122.71729844799,44446.94966622296,-122.36456020092481,-1079.754961273125,1.4099662440712915,0.013367651388578776,4.599544188284884,-3.189577944213593,1499482.1588148419,1123655.3859669266
359.00000000001313,11110.576187828447,44339.40592229072,-121.41110619543642,-1075.4374393223222,1.4113511224432236,0.013848783719321382,4.599970342322545,-3.188619219879322,1497245.0306410138,1121418.2577930985
359.10000000001315,11098.529087166577,44232.29493033709,-120.47100661870685,-1071.1099195363256,1.4127803210371814,0.014291985939577884,4.600386624685009,-3.1876063036478275,1495008.113160545,1119181.3403126297
359.2000000000132,11086.574604736996,44125.61768245389,-119.54482429581003,-1066.772478831971,1.414249915354727,0.014695943175455427,4.600792410428626,-3.1865424950738994,1492771.4700941388,1116944.6972462235
359.3000000000132,11074.71130045078,44019.37515700093,-118.63304286216625,-1062.425254529565,1.4157558838202247,0.015059684654976554,4.601187143507927,-3.185431259687702,1490535.1827406231,1114708.4098927078
359.4000000000132,11062.937689984228,43913.56830878545,-117.7361046655069,-1058.0684821548411,1.4172941255435145,0.015382417232898252,4.601570306625919,-3.1842761810824047,1488299.3663343731,1112472.5934864578
359.50000000001324,11051.252246145907,43808.19804183017,-116.85443838321447,-1053.702669552827,1.4188604770890134,0.0156635154549884,4.601941414071053,-3.18308093698204,1486064.2449964825,1110237.4721485672
359.60000000001327,11039.653396153852,43703.26513328267,-115.98849992054954,-1049.3290854749332,1.4204507449014647,0.015902678124513438,4.602300024259486,-3.181849279358021,1483830.3516859356,1108003.5788380203
359.7000000000133,11028.13953985072,43598.77027040806,-115.13856303133029,-1044.948628746106,1.422060753798733,0.016100088972682936,4.6026458196092825,-3.1805850658105497,1481598.0533460919,1105771.2804981766
359.8000000000133,11016.709043567947,43494.71398505095,-114.3049628277231,-1040.5628535710869,1.4236863518832592,0.016255980845260882,4.602978485648771,-3.179292133765512,1479367.9854749981,1103541.2126270828
359.90000000001334,11005.360243933424,43391.09662690411,-113.4879963452294,-1036.1735814683634,1.42532343392678,0.016370820435206657,4.603297764467516,-3.1779743305407364,1477140.8853773419,1101314.1125294266
360.00000000001336,10994.09144908199,43287.918319607554,-112.68794851434508,-1031.7830729655875,1.4269679633529977,0.016445294262177643,4.60360344882236,-3.1766354854693626,1474917.6622328106,1099090.8893848953
360.1000000000134,10982.900938922849,43185.178897345,-111.90510159141068,-1027.3942226254976,1.4286160021641525,0.016480388111547957,4.603895394213169,-3.175279392049017,1472699.4779066388,1096872.7050587235
360.2000000000134,10971.786963193183,43082.87784515264,-111.13975729665246,-1023.0105219236216,1.4302637252357375,0.016477230715849438,4.604173494407179,-3.1739097691714413,1470487.730348045,1094660.9575001297
360.3000000000134,10960.747742999465,42981.01425854632,-110.39220193717615,-1018.635866063209,1.43190743664008,0.016437114043424284,4.604437695423246,-3.172530258783166,1468283.9722914044,1092457.199443489
360.40000000001345,10949.78146774352,42879.58678143316,-109.66275255946064,-1014.2747711316232,1.4335435771904959,0.016361405504159734,4.604687974560819,-3.1711443973703233,1466090.0001234356,1090263.2272755203
360.5000000000135,10938.886314501142,42778.5936930343,-108.95153242377263,-1009.9308839885413,1.435168739590733,0.01625162400237308,4.604924403313449,-3.1697556637227158,1463907.2393812481,1088080.4665333328
360.6000000000135,10928.060454641958,42678.03291284484,-108.25859859183244,-1005.6078018945755,1.4367796792637955,0.016109396730622873,4.605147112320679,-3.168367433056883,1461737.0848402325,1085910.3119923172
360.7000000000135,10917.301996452328,42577.901539477985,-107.58458189629762,-1001.3137336685833,1.4383733203399367,0.01593641076141135,4.605356155794755,-3.1669828354548186,1459582.8118910138,1083756.0390430985
360.80000000001354,10906.6090779479,42478.196512800736,-106.92918504429115,-997.0502667725042,1.4399467504297105,0.01573430089773922,4.605551800507126,-3.1656050500774153,1457444.9664320294,1081618.193584114
360.90000000001356,10895.979880273338,42378.9146876283,-106.29197674561964,-992.8182517243482,1.4414972276043747,0.015504771746642424,4.605734374083074,-3.1642371464786994,1455323.788941795,1079497.0160938797
361.0000000000136,10885.412719118809,42280.053556789,-105.67161154528887,-988.6113083930367,1.4430221590982302,0.015249314938555468,4.605904353123028,-3.162882194024798,1453216.5748304669,1077389.8019825516
361.1000000000136,10874.905935951332,42181.610363517546,-105.06783167476831,-984.4319327144846,1.444519135369666,0.01496976271435772,4.606062088142226,-3.1615429527725594,1451124.2457289044,1075297.472880989
361.20000000001363,10864.457978135071,42083.58276678075,-104.47957816261058,-980.2759673679603,1.4459858976928144,0.01466762323148439,4.6062080291067895,-3.160222131413975,1449045.0184339825,1073218.2455860672
361.30000000001365,10854.067336158538,41985.96830985078,-103.9064197653417,-976.1445692997539,1.4474203611226197,0.014344634298053707,4.606342575276935,-3.158922214154315,1446979.2760023419,1071152.5031544266
361.4000000000137,10843.732550025974,41888.76446778371,-103.34786132563713,-972.0384206707535,1.4488206097355072,0.014002486128875346,4.606466147599825,-3.157645537864318,1444927.2078871075,1069100.4350391922
361.5000000000137,10833.452191579838,41791.96849117183,-102.80358446136192,-967.9597661188267,1.4501848982233978,0.013642884878906136,4.606579164619789,-3.156394266396391,1442889.6357435528,1067062.8628956375
361.6000000000137,10823.22489072257,41695.57763544366,-102.27300857268361,-963.9085572816573,1.4515116362077578,0.013267379843599044,4.606682072237098,-3.1551704360293407,1440866.4528822247,1065039.6800343094
361.70000000001374,10813.049328735806,41599.58910547921,-101.7556198676429,-959.8852996445114,1.4527993851837253,0.012877489759676095,4.606775317442368,-3.1539759322586427,1438857.7774671856,1063031.0046192703
361.80000000001377,10802.924222640895,41503.999917496556,-101.25106094911148,-955.8918798265347,1.4540468586347663,0.012474734510410725,4.606859345925008,-3.1528124872902414,1436864.2849134747,1061037.5120655594
361.9000000000138,10792.848324402921,41408.8068986553,-100.75898237974172,-951.9301884125629,1.455252912953384,0.01206054318617578,4.606934604175715,-3.151681691222331,1434886.6489271466,1059059.8760792313
362.0000000000138,10782.820612615014,41314.00852724092,-100.27711787906125,-947.983714143784,1.4564164374752253,0.011635245218413361,4.607001516416814,-3.1505850789415883,1432918.1645521466,1057091.3917042313
362.10000000001384,10772.840060461262,41219.60256674435,-99.80552153753405,-944.0596049656996,1.4575365727957152,0.011201353204899742,4.607060709324093,-3.1495241365283784,1430961.6304945294,1055134.857646614
362.20000000001386,10762.905689098277,41125.58662418262,-99.34371362984292,-940.1594256172651,1.4586126484994055,0.010760757036902224,4.607112760260373,-3.148500111760967,1429017.6013197247,1053190.8284718094
362.3000000000139,10753.016571416934,41031.958216739324,-98.89117681343598,-936.2840744329765,1.4596441619418936,0.010315134424881942,4.607158222411757,-3.147514060469863,1427086.3649915997,1051259.5921436844
362.4000000000139,10743.171845706796,40938.71492365272,-98.44725710138115,-932.4329308660504,1.4606307609573375,0.009865990154439333,4.60719763394963,-3.1465668729922927,1425167.6038832013,1049340.831035286
362.5000000000139,10733.370704047271,40845.85428457956,-98.01141659524652,-928.6063907315983,1.4615722432759635,0.0094148231862601,4.607231533719773,-3.1456592904438097,1423261.407716209,1047434.6348682938
362.60000000001395,10723.61239528055,40753.37384505659,-97.583087667209,-924.8043952297309,1.462468546980819,0.008963037048554261,4.607260450863807,-3.1447919038829877,1421367.687745506,1045540.9148975906
362.700000000014,10713.896218898963,40661.27110249444,-97.16176381588326,-921.0274256215358,1.4633197504178315,0.008512034370125744,4.60728491966502,-3.1439651692471884,1419486.5697035138,1043659.7968555985
362.800000000014,10704.221520450315,40569.54347929618,-96.74698448647442,-917.2762319825731,1.4641260648314551,0.008063144136236034,4.607305464963668,-3.1431794001322126,1417618.2868665997,1041791.5140186844
362.900000000014,10694.587702505374,40478.188454465024,-96.33817944940581,-913.550248311575,1.4648878202861544,0.007617554546991635,4.607322589344315,-3.14243476905816,1415762.5524915997,1039935.7796436844
363.00000000001404,10684.99425599308,40387.20393011183,-95.93446512294567,-909.8452435319674,1.4656054321140486,0.0071761182789415135,4.60733672483051,-3.141731292716462,1413917.6339124981,1038090.8610645828
363.10000000001406,10675.440714937198,40296.58771923158,-95.53541055882192,-906.1621088024795,1.4662794493423463,0.006740172282976576,4.6073484066420125,-3.141068957299666,1412083.828004295,1036257.0551563797
363.2000000000141,10665.926657195798,40206.337590132964,-95.14057741400298,-902.5012909861919,1.4669105373361426,0.006310879937963443,4.6073581358533815,-3.140447598517239,1410261.257691795,1034434.4848438797
363.3000000000141,10656.451701256015,40116.45126522957,-94.74955939783176,-898.8632490339439,1.4674994652550688,0.0058892791892607025,4.607366388138437,-3.139866922883368,1408450.0504164044,1032623.2775684891
363.40000000001413,10647.0155111202,40026.92649738201,-94.36190135815656,-895.2476784755545,1.4680470940570338,0.005476288019650158,4.607373612223336,-3.1393265181663024,1406650.0339369122,1030823.2610889969
363.50000000001415,10637.61779241775,39937.761040216494,-93.97718702450446,-891.6545716551741,1.4685543757530528,0.005072816960190774,4.60738025587695,-3.138825880123897,1404861.1544203106,1029034.3815723953
363.6000000000142,10628.258291458878,39848.952659892675,-93.59500958872314,-888.0838032382158,1.4690223463289216,0.004679705758688563,4.607386749879263,-3.138364403550341,1403083.3133558575,1027256.5405079422
363.7000000000142,10618.936815042687,39760.499378890476,-93.21476416190494,-884.532810021996,1.4694521051270653,0.004297587981436326,4.607393466238955,-3.13794136111189,1401315.45886367,1025488.6860157547
363.8000000000142,10609.653194631928,39672.3990438294,-92.83620410758614,-881.0033506107976,1.4698448579343033,0.003927528072381104,4.607400892103465,-3.1375560341691617,1399558.2330335919,1023731.4601856766
363.90000000001424,10600.407292204281,39584.64943293533,-92.45902427645984,-877.4961089406804,1.4702018956231748,0.003570376888715039,4.607409460645658,-3.137207565022483,1397811.8554701153,1021985.0826222
364.00000000001427,10591.198997454347,39497.24827019993,-92.08294749933937,-874.0116273539531,1.4705245775427944,0.0032268191961949103,4.6074195632742825,-3.1368949857314883,1396076.4925550763,1020249.719707161
364.1000000000143,10582.028230125776,39410.19329026029,-91.70767328570605,-870.5497993963891,1.470814315377126,0.002897378343317057,4.607431546271861,-3.1366172308947347,1394352.0567640606,1018525.2839161453
364.2000000000143,10572.89495936664,39323.48249740804,-91.33270759136211,-867.1079285225029,1.4710725460905327,0.002582307134067955,4.607445670779514,-3.136373124688981,1392637.4575208966,1016810.6846729813
364.30000000001434,10563.799191418344,39237.11402703322,-90.95767948296775,-863.6847037482516,1.471300744122987,0.0022819803245437403,4.60746222810403,-3.1361614839810428,1390932.1441664044,1015105.3713184891
364.40000000001436,10554.740949656009,39151.085943120044,-90.58241762335525,-860.2808391317199,1.4715004267923604,0.0019968266937341215,4.607481529655158,-3.1359811028627975,1389236.3570570294,1013409.5842091141
364.5000000000144,10545.720292474476,39065.39646117833,-90.20657181532289,-856.8948194171254,1.4716731377177399,0.001727109253796054,4.607503826949994,-3.1358306892322543,1387549.4710707013,1011722.698222786
364.6000000000144,10536.737295982053,38980.04378202179,-89.82996492423706,-853.5267915653596,1.471820447416273,0.001473096985332656,4.607529377466426,-3.1357089300501526,1385871.5087904278,1010044.7359425125
364.7000000000144,10527.792060185455,38895.02618890468,-89.45235796598715,-850.1759311711182,1.4719439409729285,0.0012349355665535447,4.607558395409026,-3.135614454436097,1384202.1179212872,1008375.3450733719
364.80000000001445,10518.884695738077,38810.34191644765,-89.07364447377225,-846.8427245702833,1.472045220798671,0.0010127982574252292,4.6075911043272395,-3.1355458835285686,1382541.4554457013,1006714.682597786
364.9000000000145,10510.015324361124,38725.989181838966,-88.69371376952641,-843.5273460868135,1.4721258979275254,0.0008067712885434208,4.607627697262458,-3.135501799334933,1380889.556153709,1005062.7833057938
365.0000000000145,10501.18407656285,38641.96619296527,-88.31247798274465,-840.229888736964,1.4721875814622956,0.0006168353477020062,4.607668332894154,-3.135480751431859,1379246.4259046856,1003419.6530567703
365.1000000000145,10492.391088276436,38558.271131159134,-87.92988286414072,-836.9506180613926,1.4722318746410874,0.00044293178791822874,4.607713153574223,-3.1354812789331357,1377612.1363539044,1001785.3635059891
365.20000000001454,10483.636493088587,38474.902103783585,-87.5459518785006,-833.6902737554626,1.4722603642681966,0.0002848962710911601,4.607762270184719,-3.135501905916523,1375986.9426283184,1000160.1697804031
365.30000000001456,10474.920445647631,38391.857405909504,-87.16047440956346,-830.4469787407974,1.4722746129708137,0.00014248702617193157,4.607815746297984,-3.13554113332717,1374370.0944837872,998543.3216358719
365.4000000000146,10466.243095272172,38309.13526236984,-86.77350375459116,-827.2214353966646,1.4722761586866515,1.5457158376814618e-05,4.607873654395069,-3.135597495708418,1372761.8345960919,996935.0617481766
365.5000000000146,10457.60459096082,38226.7339032523,-86.38504311351356,-824.0135911753754,1.4722665068146055,-9.651872046013865e-05,4.607936032480472,-3.1356695256658664,1371162.1159681622,995335.3431202469
365.60000000001463,10449.005071400428,38144.65148266804,-85.99519560391168,-820.8242058425737,1.4722471245499518,-0.00019382264653804344,4.60800290075146,-3.135755776201508,1369571.2055677716,993744.4327198563
