t[s],x[m],y[m],vx[m/s],vy[m/s],mass[kg]
0.1,-3.0380664429880415e-05,1.5022575694070173,-0.00030380664429880414,0.022575694070172504,2186885.6821171492
0.2,-9.129503007171114e-05,1.5068020504632438,-0.0006091436564183072,0.04544481056226442,2186246.101543881
0.30000000000000004,-0.0001828885133563144,1.5136628039841409,-0.0009159348328460325,0.0686075352089711,2185606.520970898
0.4,-0.00030530182788482115,1.5228692093909209,-0.0012241331452850677,0.09206405406780008,2184966.9403982037
0.5,-0.00045867096043590843,1.534450664744858,-0.0015336913255108728,0.11581455353937127,2184327.3598258
0.6,-0.0006431271430815341,1.5484365867816507,-0.001844561826456256,0.13985922036792858,2183687.77925369
0.7,-0.0008587968251801609,1.5648564109458336,-0.0021566968209862673,0.16419824164182872,2183048.1986818756
0.7999999999999999,-0.001105801645246847,1.5837395914252368,-0.0024700482006668615,0.18883180479403186,2182408.618110359
0.8999999999999999,-0.0013842584026996286,1.6051156011854957,-0.002784567574527814,0.21376009760258907,2181769.0375391436
0.9999999999999999,-0.0016942790294815161,1.629013932004609,-0.003100206267818876,0.23898330819113417,2181129.4569682316
1.0999999999999999,-0.0020359705615575433,1.6554640945075465,-0.0034169153207602694,0.26450162502937435,2180489.8763976255
1.2,-0.002409435110286175,1.6844956182009045,-0.0037346454872863163,0.29031523693357963,2179850.295827328
1.3,-0.0028147698336645588,1.7161380515076121,-0.004053347233783839,0.3164243330670766,2179210.715257342
1.4000000000000001,-0.0032520669074468603,1.750420961801686,-0.004372970737823017,0.34282910294073793,2178571.1346876696
1.5000000000000002,-0.003721413496135139,1.7873739354430336,-0.004693465886882783,0.3695297364134767,2177931.554118314
1.6000000000000003,-0.004222891723842111,1.8270265778123074,-0.0050147822770697185,0.39652642369273766,2177291.9735492775
1.7000000000000004,-0.004756578645025123,1.8694085133458063,-0.0053368692118301204,0.4238193553349898,2176652.392980563
1.8000000000000005,-0.00532254621509075,1.9145493855704283,-0.0056596757006562755,0.4514087222462212,2176012.8124121735
1.9000000000000006,-0.005920861260869311,1.9624788571386715,-0.005983150457785612,0.4792947156824315,2175373.2318441113
2.0000000000000004,-0.006551585450958713,2.0132266098636844,-0.006307241900894016,0.5074775272501277,2174733.6512763794
2.1000000000000005,-0.007214775265936938,2.066822344754366,-0.006631898149782254,0.5359573489068158,2174094.070708981
2.2000000000000006,-0.007910481968442499,2.123295782050516,-0.00695706702505561,0.5647343729614976,2173454.490141918
2.3000000000000007,-0.008638751573122251,2.1826766612580326,-0.007282696046797517,0.5938087920751669,2172814.909575194
2.400000000000001,-0.00939962481644587,2.2449947411841626,-0.00760873243323618,0.6231807992613004,2172175.329008812
2.500000000000001,-0.010193137126386309,2.3102797999727986,-0.007935123099404395,0.6528505878863594,2171535.7484427746
2.600000000000001,-0.011019318591965619,2.378561635139827,-0.008261814655793107,0.6828183516702825,2170896.1678770846
2.700000000000001,-0.01187819393266543,2.4498700636085253,-0.008588753406998115,0.7130842846869823,2170256.587311745
2.800000000000001,-0.012769782467701381,2.5242349217450095,-0.008915885350359521,0.743648581364843,2169617.006746759
2.9000000000000012,-0.013694098085160865,2.6016860653937313,-0.009243156174594827,0.7745114364872165,2168977.42618213
3.0000000000000013,-0.014651149211003403,2.6822533699130235,-0.009570511258425389,0.8056730451929216,2168337.84561786
3.1000000000000014,-0.015640938777922983,2.7659667302106974,-0.009897895669195817,0.8371336029767401,2167698.265053953
3.2000000000000015,-0.016663464194071588,2.852856060779689,-0.010225254161486032,0.868893305689915,2167058.6844904115
3.3000000000000016,-0.017718717311643276,2.942951295733754,-0.010552531175716879,0.9009523495406493,2166419.103927239
3.4000000000000017,-0.018806684395318168,3.0362823888432144,-0.010879670836748909,0.9333109310946045,2165779.523364438
3.5000000000000018,-0.019927346090565512,3.132879313570754,-0.011206616952473453,0.9659692472753992,2165139.9428020124
3.600000000000002,-0.021080677391805247,3.232772063107265,-0.011533313012397338,0.9989274953651085,2164500.3622399652
3.700000000000002,-0.022266647610427258,3.3359906504077412,-0.011859702186220117,1.0321858730047628,2163860.7816782994
3.800000000000002,-0.02348522034266772,3.442565108227226,-0.012185727322404631,1.0657445781948478,2163221.2011170182
3.900000000000002,-0.024736353437341686,3.5525254891568063,-0.01251133094673963,1.0996038092958056,2162581.6205561254
4.000000000000002,-0.026019998963431278,3.6659018656596594,-0.012836455260895909,1.1337637650285317,2161942.0399956238
4.100000000000001,-0.027336103177528794,3.7827243301071474,-0.013161042140975174,1.1682246444748785,2161302.459435517
4.200000000000001,-0.02868460649113392,3.903022994814963,-0.013485033136051258,1.2029866470781554,2160662.878875808
4.300000000000001,-0.030065443437804342,4.026827992079325,-0.013808369466704216,1.2380499726436276,2160023.2983165
4.4,-0.03147854264015906,4.154169474213227,-0.014130992023547242,1.2734148213390193,2159383.7177575976
4.5,-0.03292382677673364,4.285077613582729,-0.014452841365745745,1.3090813936950134,2158744.137199103
4.6,-0.034401212548686604,4.419582602643304,-0.014773857719529618,1.3450498906057549,2158104.55664102
4.699999999999999,-0.03591061064635638,4.557714653976239,-0.015093980976697736,1.38132051332935,2157464.976083352
4.799999999999999,-0.03745192571566789,4.699504000325076,-0.015413150693115071,1.4178934634883702,2156825.395526103
4.899999999999999,-0.039025056324388095,4.844980894632111,-0.015731306087202027,1.4547689430703528,2156185.8149692765
4.999999999999998,-0.04062989492822976,4.994175610074942,-0.0160483860384166,1.4919471544283038,2155546.2344128755
5.099999999999998,-0.042266327836802606,5.147118440103062,-0.016364329085728484,1.529428300281201,2154906.6538569042
5.1999999999999975,-0.0439342351794112,5.303839698474512,-0.01667907342608597,1.5672125837144952,2154267.073301366
5.299999999999997,-0.045633490870698706,5.4643697192925735,-0.01699255691287501,1.6053002081806127,2153627.492746264
5.399999999999997,-0.04736396257613576,5.62873885704252,-0.017304717054370547,1.64369137749946,2152987.912191603
5.4999999999999964,-0.04912551167735373,5.796977486628412,-0.017615491012179758,1.6823862958589249,2152348.3316373858
5.599999999999996,-0.05091799323732155,5.96911600340995,-0.017924815599678238,1.7213851678153809,2151708.7510836166
5.699999999999996,-0.05274125596536534,6.145184823239369,-0.01823262728043782,1.7606881982941889,2151069.170530299
5.799999999999995,-0.054595142182029995,6.325214382498389,-0.018538862166646602,1.800295592590203,2150429.5899774376
5.899999999999995,-0.0564794877837821,6.5092351381352165,-0.018843456017521024,1.8402075563682716,2149790.009425035
5.999999999999995,-0.05839412220755309,6.69727756770159,-0.01914634423770994,1.8804242956637423,2149150.428873096
6.099999999999994,-0.06033886839512223,6.889372169389887,-0.01944746187569135,1.920946016882965,2148510.8483216246
6.199999999999994,-0.062313542757338226,7.085549462070267,-0.019746743622159942,1.9617729268037958,2147871.2677706243
6.299999999999994,-0.06431795513817898,7.285839985327877,-0.020044123808407525,2.002905232576101,2147231.687220099
6.399999999999993,-0.0663519087786485,7.490274299500103,-0.02033953640469512,2.0443431417222624,2146592.1066700527
6.499999999999993,-0.06841520028051014,7.698882985713871,-0.020632915018616492,2.086086862137678,2145952.52612049
6.5999999999999925,-0.07050761956985553,7.911696645922998,-0.020924192893453878,2.1281366020912684,2145312.9455714147
6.699999999999992,-0.07262894986050808,8.128745902945596,-0.02121330290652551,2.1704925702259823,2144673.3650228307
6.799999999999992,-0.07477896761726056,8.350061400501525,-0.021500177567524776,2.2131549755592963,2144033.784474742
6.8999999999999915,-0.07695744251894564,8.575673803249899,-0.02178474901685077,2.2561240274837235,2143394.2039271537
6.999999999999991,-0.07916413742133872,8.80561379682663,-0.022066949023930887,2.299399935767316,2142754.623380069
7.099999999999991,-0.08139880831989223,9.039912087882048,-0.022346708985534994,2.3429829105541673,2142115.042833493
7.19999999999999,-0.08366120431230029,9.27859940411854,-0.022623959924080637,2.3868731623649206,2141475.4622874293
7.29999999999999,-0.08595106756089337,9.521706494328267,-0.02289863248593078,2.4310709020972703,2140835.881741883
7.39999999999999,-0.08826813325486155,9.769264128430914,-0.023170656939681827,2.475576341026466,2140196.3011968574
7.499999999999989,-0.09061212957230595,10.021303097511495,-0.0234399631744441,2.5203896908058185,2139556.7206523577
7.599999999999989,-0.09298277764211724,10.277854213858216,-0.023706480698112837,2.565511163467204,2138917.1401083884
7.699999999999989,-0.09537979150568035,10.538948311000373,-0.023970138635631136,2.6109409714215657,2138277.5595649537
7.799999999999988,-0.09780287807840476,10.804616243746315,-0.02423086572724408,2.6566793274594214,2137637.9790220577
7.899999999999988,-0.10025173711107917,11.074888888221452,-0.024488590326744022,2.7027264447513657,2136998.3984797057
7.999999999999988,-0.1027260611510499,11.34979714190631,-0.024743240399707298,2.749082536848575,2136358.8179379017
8.099999999999987,-0.10522553550322207,11.62937192367464,-0.024994743521721614,2.7957478176833104,2135719.237396651
8.199999999999987,-0.10774983819088259,11.913644173831582,-0.0252430268766052,2.842722501569423,2135079.6568559576
8.299999999999986,-0.11029863991634423,12.202644854151867,-0.025488017254616437,2.8900068032028576,2134440.0763158267
8.399999999999986,-0.11287160402140975,12.496404947918082,-0.025729641050655217,2.9376009376621557,2133800.4957762626
8.499999999999986,-0.1154683864476552,12.794955459958977,-0.025967824262454448,2.985505120408959,2133160.9152372703
8.599999999999985,-0.11808863569653155,13.098327416687829,-0.026202492488763503,3.0337195672885167,2132521.334698855
8.699999999999985,-0.12073199278928373,13.406551866140846,-0.02643357092752179,3.082244494530183,2131881.7541610207
8.799999999999985,-0.12339809122668606,13.719659878015639,-0.026660984374023287,3.1310801187479247,2131242.1736237733
8.899999999999984,-0.1260865569485933,14.037682543709721,-0.026884657219072558,3.180226656940824,2130602.593087117
8.999999999999984,-0.12879700829330634,14.360650976359079,-0.027104513447130506,3.2296843264935817,2129963.012551057
9.099999999999984,-0.13152905595675154,14.68859631087678,-0.027320476634452025,3.2794533451770183,2129323.4320155988
9.199999999999983,-0.13428230295147286,15.021549703991639,-0.027532469947213166,3.3295339311485797,2128683.8514807466
9.299999999999983,-0.13705634456543583,15.359542334286923,-0.02774041613962964,3.3799263029528372,2128044.270946506
9.399999999999983,-0.13985076832064244,15.702605402239122,-0.027944237552066202,3.4306306795219927,2127404.6904128822
9.499999999999982,-0.14266515393155602,16.05077013025676,-0.028143856109135706,3.4816472801763783,2126765.10987988
9.599999999999982,-0.14549907326333492,16.404067762719254,-0.02833919331778898,3.532976324624961,2126125.5293475054
9.699999999999982,-0.1483520902898745,16.76252956601584,-0.028530170265396008,3.584618032965843,2125485.948815763
9.799999999999981,-0.1512237610516561,17.126186828584515,-0.028716707617815942,3.636572625686764,2124846.3682846585
9.89999999999998,-0.15411363361340202,17.495070860951074,-0.02889872561745914,3.6888403236656027,2124206.787754197
9.99999999999998,-0.15702124802153583,17.869212995768162,-0.029076144081338202,3.741421348170879,2123567.207224384
10.09999999999998,-0.15994613626144683,18.248644587854386,-0.02924888239911005,3.7943159208622546,2122927.626695225
10.19999999999998,-0.16288782221455758,18.633397014233488,-0.029416859531107658,3.847524263791031,2122288.0461667255
10.29999999999998,-0.16584582161519384,19.023501674173552,-0.029579994006362763,3.9010465994006567,2121648.465638891
10.399999999999979,-0.16881964200725566,19.418989989226276,-0.02973820392061802,3.9548831505272197,2121008.8851117273
10.499999999999979,-0.17180878270068858,19.81989340326627,-0.029891406934329297,4.009034140399953,2120369.30458524
10.599999999999978,-0.17481273472775438,20.226243382530445,-0.0300395202706581,4.063499792641733,2119729.724059434
10.699999999999978,-0.1778309807990998,20.638071415657404,-0.030182460713454352,4.118280331269579,2119090.143534316
10.799999999999978,-0.18086299525962268,21.05540901372692,-0.03032014460522876,4.173375980695152,2118450.563009892
10.899999999999977,-0.18390824404413417,21.478287710299444,-0.030452487845114784,4.228786965725252,2117810.982486167
10.999999999999977,-0.18696618463281625,21.906739061455674,-0.030579405886820874,4.28451351156232,2117171.4019631473
11.099999999999977,-0.1900362660064735,22.34079464583617,-0.03070081373657246,4.340555843804935,2116531.8214408387
11.199999999999976,-0.19311792860157787,22.780486064681,-0.03081662595104371,4.39691418844831,2115892.2409192473
11.299999999999976,-0.19621060426510573,23.22584494186948,-0.030926756635278746,4.4535887718847915,2115252.660398379
11.399999999999975,-0.199313716209166,23.676902923959915,-0.031031119440602606,4.510579820904355,2114613.07987824
11.499999999999975,-0.2024266789654182,24.133691680229425,-0.031129627562521835,4.5678875626951045,2113973.499358836
11.599999999999975,-0.20554889833927967,24.5962429027138,-0.031222193738614734,4.625512224843767,2113333.918840174
11.699999999999974,-0.20867977136392074,25.06458830624742,-0.031308730246410774,4.6834540353361875,2112694.33832226
11.799999999999974,-0.21181868625404673,25.5387596285032,-0.0313891489012598,4.741713222557827,2112054.7578050997
11.899999999999974,-0.21496502235946577,26.018788630032628,-0.03146336105419044,4.800290015294257,2111415.1772887
11.999999999999973,-0.21811815011844154,26.504707094305793,-0.03153127758975789,4.859184642731651,2110775.596773067
12.099999999999973,-0.22127743101082967,26.996546827751523,-0.03159280892388116,4.9183973344572856,2110136.016258207
12.199999999999973,-0.22444221751099658,27.494339659797525,-0.0316478650016692,4.977928320460029,2109496.435744127
12.299999999999972,-0.22761185304052023,27.99811744291061,-0.03169635529523657,5.0377778311308345,2108856.855230833
12.399999999999972,-0.230785671920671,28.507912052636932,-0.03173818880150783,5.097946097263236,2108217.274718332
12.499999999999972,-0.23396299932467218,29.023755387642318,-0.03177327404001182,5.158433350053839,2107577.694206631
12.599999999999971,-0.23714315122973859,29.545679369752598,-0.031801519050664084,5.219239821102814,2106938.1136957356
12.69999999999997,-0.24032543436889245,30.07371594399404,-0.03182283139153852,5.280365742414386,2106298.5331856534
12.79999999999997,-0.24350914618255529,30.607897078633773,-0.0318371181366285,5.341811346397326,2105658.9526763908
12.89999999999997,-0.24669357476991488,31.148254765220315,-0.031844285873595946,5.403576865865443,2105019.372167955
12.99999999999997,-0.24987799884006592,31.694821018624122,-0.03184424070151038,5.465662534038072,2104379.791660353
13.09999999999997,-0.2530616876629235,32.24762787707818,-0.03183688822857551,5.528068584540564,2103740.2111535915
13.199999999999969,-0.256243901019908,32.806707402218656,-0.03182213356984537,5.590795251404775,2103100.6306476775
13.299999999999969,-0.2594238891544009,33.37209167912561,-0.031799881344929073,5.653842769069556,2102461.0501426184
13.399999999999968,-0.2626008927219693,33.94381281636373,-0.031770035675683664,5.717211372381236,2101821.469638421
13.499999999999968,-0.26577414274035893,34.52190294602314,-0.03173250018389624,5.780901296594114,2101181.8891350934
13.599999999999968,-0.2689428605392543,35.10639422376023,-0.03168717798895406,5.844912777370942,2100542.308632642
13.699999999999967,-0.2721062577098047,35.697318828838576,-0.03163397170550347,5.909246050783413,2099902.7281310745
13.799999999999967,-0.27526353605391435,36.29470896416984,-0.031572783441096465,5.973901353312645,2099263.1476303977
13.899999999999967,-0.27841388753329704,36.89859685635481,-0.031503514793826744,6.038878921849667,2098623.5671306197
13.999999999999966,-0.2815564942182924,37.509014755724394,-0.031426066849953325,6.104178993695902,2097983.986631748
14.099999999999966,-0.28469052823644364,38.125994936380756,-0.03134034018151269,6.1698018065636475,2097344.40613379
14.199999999999966,-0.2878151517208355,38.74956969623841,-0.031246234843918603,6.235747598576564,2096704.8256367536
14.299999999999965,-0.29092951675819057,39.37977135706542,-0.031143650373550675,6.302016608270153,2096065.2451406461
14.399999999999965,-0.2940327653367236,40.016632264524645,-0.031032485785330792,6.368609074592238,2095425.6646454756
14.499999999999964,-0.29712402929375237,40.66018478821499,-0.030912639570287455,6.435525236903446,2094786.0841512498
14.599999999999964,-0.3002024302630632,41.31046132171276,-0.030784009693108478,6.5027653349776875,2094146.5036579766
14.699999999999964,-0.30326707962203125,41.967494282613025,-0.030646493589680777,6.570329609002635,2093506.923165664
14.799999999999963,-0.30631707843849315,42.63131611257104,-0.030499988164618904,6.638218299580201,2092867.3426743203
14.899999999999963,-0.30935151741737127,43.30195927734374,-0.030344389788780915,6.706431647727015,2092227.7621839533
14.999999999999963,-0.31236947684704847,43.97945626683123,-0.030179594296771955,6.774969894874904,2091588.1816945712
15.099999999999962,-0.31537002654549207,44.66383959511836,-0.03000549698443575,6.843833282871364,2090948.6012061823
15.199999999999962,-0.31835222580612543,45.355141800516364,-0.029821992606333603,6.913022053980034,2090309.0207187948
15.299999999999962,-0.32131512334344653,46.05339544560448,-0.029628975373210974,6.982536450881177,2089669.440232417
15.399999999999961,-0.3242577572383917,46.75863311727169,-0.029426338949451472,7.052376716672147,2089029.8597470578
15.499999999999961,-0.3271791548834435,47.47088742675848,-0.02921397645051863,7.122543094867864,2088390.2792627253
15.59999999999996,-0.33007833292748195,48.19019100969861,-0.028991780440384533,7.193035829401287,2087750.6987794281
15.69999999999996,-0.3329542972203766,48.916576526160995,-0.02875964292894643,7.263855164623883,2087111.118297175
15.79999999999996,-0.3358060427573196,49.6500766606916,-0.028517455369430345,7.335001345306097,2086471.5378159746
15.89999999999996,-0.3386325536228978,50.39072412235539,-0.02826510865578166,7.406474616637822,2085831.9573358356
15.99999999999996,-0.34143280293490214,51.138551644778275,-0.028002493120043336,7.478275224228868,2085192.3768567669
16.09999999999996,-0.3442057527878742,51.893591986189215,-0.02772949852972057,7.550403414109428,2084552.7963787776
16.19999999999996,-0.34695035419638753,52.65587792946227,-0.02744601408513353,7.622859432730544,2083913.2159018766
16.29999999999996,-0.34966554703806313,53.42544228215873,-0.02715192841675616,7.695643526964572,2083273.635426073
16.399999999999963,-0.35235025999631736,54.20231787656929,-0.02684712958254231,7.768755944105649,2082634.054951376
16.499999999999964,-0.35500341050284123,54.98653756975631,-0.02653150506523885,7.842196931870156,2081994.4744777947
16.599999999999966,-0.35762390467980976,55.77813424359603,-0.026204941769685252,7.9159667383971755,2081354.8940053387
16.699999999999967,-0.3602106372818198,56.57714080482092,-0.025867326020100164,7.99006561224896,2080715.313534017
16.79999999999997,-0.36276249163755525,57.38359018506206,-0.025518543557354813,8.064493802411388,2080075.7330638391
16.89999999999997,-0.3652783395911785,58.197515340891506,-0.025158479536232594,8.139251558294424,2079436.1525948148
16.99999999999997,-0.3677570414434461,59.01894925386476,-0.024787018522675956,8.214339129732577,2078796.5721269536
17.099999999999973,-0.37019744589254805,59.847924930563295,-0.02440404449101915,8.28975676698536,2078156.9916602653
17.199999999999974,-0.3725983899746688,60.68447540263707,-0.024009440821207432,8.36550472073774,2077517.4111947592
