t[s],x[m],y[m],vx[m/s],vy[m/s],mass[kg]
0.1,1.0411970726665476e-17,1.5719739322535367,1.0411970726665475e-16,0.7197393225353665,9675022.17812388
0.2,0.0002419682292164615,1.7160056956364045,0.0024196822921645107,1.4403176338286783,9670225.331982778
0.30000000000000004,0.0009326773675251462,1.932178615300707,0.006907091383086847,2.1617291966430257,9665428.506584859
0.4,0.0021215238187886508,2.2205767418264166,0.011888464512635047,2.883981265257095,9660631.688987931
0.5,0.003828272479970943,2.5812843795243823,0.01706748661182292,3.607076376979656,9655834.876264546
0.6,0.0060471456092208095,3.014387401402181,0.02218873129249867,4.331030218777985,9651038.065549584
0.7,0.008747776133964122,3.5199717766125316,0.027006305247433113,5.055843752103504,9646241.253937708
0.7999999999999999,0.01187675299574968,4.098123947824104,0.03128976861785558,5.781521712115726,9641444.438834015
0.8999999999999999,0.015359766522023078,4.748930766734052,0.03483013526273397,6.508068189099482,9636647.618235493
0.9999999999999999,0.019104258447125648,5.4724793727765455,0.037444919251025686,7.235486060424934,9631850.790905178
1.0999999999999999,0.023002465633348717,6.268857050669925,0.0389820718622307,7.963776778933793,9627053.956433108
1.2,0.02693474071544212,7.138151076921098,0.039322750820934047,8.692940262511732,9622257.1151923
1.3,0.030773031388596855,8.080448564200035,0.03838290673154736,9.422974872789368,9617460.268208798
1.4000000000000001,0.03438440199765137,9.095836310493526,0.036113706090545185,10.153877462934915,9612663.416972099
1.5000000000000002,0.037634485860719796,10.184400657403659,0.03250083863068426,10.885643469101332,9607866.563215507
1.6000000000000003,0.0403907635709116,11.346227359163361,0.027562777101918012,11.618267017597024,9603069.708695479
1.7000000000000004,0.04252557015567955,12.581401461385859,0.021348065847679495,12.351741022224973,9598272.85499522
1.8000000000000005,0.04391874016860159,13.890006903777454,0.013931700129220397,13.08605442391596,9593476.003371703
1.9000000000000006,0.044459796051513435,15.272116729534718,0.005410558829118433,13.821098257572636,9588679.154657675
2.0000000000000004,0.044049657071146206,16.727814275573305,-0.004101389803672268,14.55697546038586,9583882.309222361
2.1000000000000005,0.04260204689805465,18.25718437855484,-0.0144761017309156,15.293701029815352,9579085.466987552
2.2000000000000006,0.040044344176623795,19.860315629975243,-0.02557702721430851,16.031312514204043,9574288.627490418
2.3000000000000007,0.03632484267619317,21.537296273502356,-0.03719501500430631,16.769806435271143,9569491.789980013
2.400000000000001,0.031408914867023185,23.288215284474788,-0.049159278091699815,17.509190109724315,9564694.95355041
2.500000000000001,0.025274030326289183,25.11316184081086,-0.06134884540734002,18.24946556336072,9559898.117266307
2.600000000000001,0.017910381197366772,27.01222461494513,-0.0736364912892241,18.9906277413427,9555101.280253218
2.700000000000001,0.009318607369915364,28.985493194557975,-0.08591773827451407,19.732685796128443,9550304.441774689
2.800000000000001,-0.0004902622491810473,31.03305377925534,-0.09808869619096411,20.475605846973636,9545507.601286331
2.9000000000000012,-0.011495716571300546,33.15499526521295,-0.11005454322119498,21.2194148595761,9540710.758463394
3.0000000000000013,-0.023669499295510085,35.35140851886325,-0.12173782724209539,21.96413253650298,9535913.91320339
3.1000000000000014,-0.03697983296384488,37.62238102436616,-0.13310333668334798,22.709725055029093,9531117.065602725
3.2000000000000015,-0.051388128238116164,39.967999316311285,-0.14408295274271282,23.456182919451255,9526320.215911444
3.3000000000000016,-0.06685325709040355,42.3883514839324,-0.15465128852287374,24.203521676211086,9521523.36448679
3.4000000000000017,-0.08333385330826514,44.88352853944425,-0.16480596217861593,24.95177055511854,9516726.511738768
3.5000000000000018,-0.10078859152763406,47.45362001722903,-0.17454738219368926,25.70091477784775,9511929.65807607
3.600000000000002,-0.11917813020718834,50.0987138350017,-0.1838953867955429,26.450938177726727,9507132.803864354
3.700000000000002,-0.1384682473984547,52.81889741596987,-0.1929011719126637,27.201835809681718,9502335.949396407
3.800000000000002,-0.1586282666146417,55.61425867736734,-0.20160019216186995,27.953612613974656,9497539.094876433
3.900000000000002,-0.1796323257454471,58.484886412366485,-0.21004059130805422,28.70627734999144,9492742.240419544
4.000000000000002,-0.201461308397616,61.430869510242154,-0.21828982652168893,29.45983097875671,9487945.38606238
4.100000000000001,-0.2241026359504735,64.45229696689809,-0.22641327552857501,30.214274566559308,9483148.531783072
4.200000000000001,-0.2475506434082856,67.54925760003769,-0.2344800745781208,30.969606331396,9478351.677526705
4.300000000000001,-0.27180660320374683,70.72184053858703,-0.2425595979546122,31.725829385493366,9473554.823231796
4.4,-0.2968781942222593,73.9701349924043,-0.2507159101851249,32.482944538172724,9468757.968854321
4.5,-0.3227787574995572,77.29423018074517,-0.2590056327729791,33.24095188340872,9463961.114386113
4.6,-0.34952648367618416,80.69421552433977,-0.26747726176626985,33.999853435945916,9459164.259865863
4.699999999999999,-0.37714348509000983,84.17018053230534,-0.276170014138257,34.75965007965574,9454367.405382268
4.799999999999999,-0.40565477873639927,87.72221478401767,-0.28511293646389446,35.52034251712331,9449570.551069723
4.899999999999999,-0.4350870536013083,91.35040790310151,-0.2943227486490902,36.28193119083842,9444773.697097871
4.999999999999998,-0.4654678703746623,95.05484943954845,-0.30380816773354,37.04441536446942,9439976.843656981
5.099999999999998,-0.4968244257609929,98.83562884010841,-0.31356555386330576,37.807794005599646,9435179.990941156
5.1999999999999975,-0.5291824908486242,102.69283541393776,-0.3235806508763137,38.572065738293446,9430383.1391316
5.299999999999997,-0.5625654205315008,106.62655830785089,-0.33382929682876605,39.33722893913134,9425586.288382087
5.399999999999997,-0.5969931672014303,110.63688657314736,-0.34427746669929393,40.10328265296474,9420789.438807959
5.4999999999999964,-0.6324872258415619,114.72390923671186,-0.35494058640131676,40.870226635644975,9415992.59047976
5.599999999999996,-0.6690579975581752,118.88771554747917,-0.36570771716613326,41.63806310767308,9411195.743412219
5.699999999999996,-0.7067099856331358,123.12839516841,-0.37651988074960646,42.406796209308155,9406398.89757636
5.799999999999995,-0.7454442146470099,127.44603823758445,-0.38734229013874144,43.176430691744514,9401602.052913513
5.899999999999995,-0.7852561270679653,131.84073448513152,-0.3981191242095537,43.946962475470635,9396805.209336149
5.999999999999995,-0.8261353033632682,136.312573998788,-0.40879176295302955,44.71839513656474,9392008.366737764
6.099999999999994,-0.8680661732924487,140.86164591503888,-0.4193086992918046,45.49071916250879,9387211.525006823
6.199999999999994,-0.9110310659911269,145.48803899580744,-0.4296489269867825,46.26393080768561,9382414.68403716
6.299999999999994,-0.9550077482709606,150.1918406647893,-0.43976682279833673,47.03801668981874,9377617.843730409
6.399999999999993,-0.999969196627064,154.9731379154687,-0.4496144835610342,47.812972506793734,9372821.004003877
6.499999999999993,-1.045884634454473,159.83201776466973,-0.4591543782740902,48.58879849201043,9368024.164801538
6.5999999999999925,-1.0927211474366922,164.76856812175023,-0.46836512982219314,49.36550357080518,9363227.326098815
6.699999999999992,-1.1404439475033576,169.78287795343914,-0.4772280006666541,50.143098316889116,9358430.487902256
6.799999999999992,-1.18901753591323,174.87503725695012,-0.4857358840987241,50.921593035109815,9353633.650249286
6.8999999999999915,-1.2384060179700043,180.04513664669125,-0.49388482056774263,51.70099389741115,9348836.813206743
6.999999999999991,-1.288574341875939,185.29326690223172,-0.5016832390593466,52.4813025554047,9344039.976868942
7.099999999999991,-1.339488578608166,190.61951858861374,-0.5091423673222706,53.26251686382012,9339243.141353987
7.19999999999999,-1.3911164456198057,196.02398199875466,-0.5162786701163978,54.04463410140913,9334446.30679981
7.29999999999999,-1.4434276585773271,201.5067472562479,-0.5231121295752144,54.827652574932515,9329649.473360274
7.39999999999999,-1.496393868349445,207.06790454538705,-0.5296620977211791,55.61157289139144,9324852.641200416
7.499999999999989,-1.54998948095663,212.70754419054487,-0.5359561260718487,56.39639645157811,9320055.810492117
7.599999999999989,-1.604191238250026,218.4257566384589,-0.5420175729339627,57.18212447914041,9315258.981407179
7.699999999999989,-1.6589768701755614,224.22263244403206,-0.5478563192553543,57.96875805573167,9310462.15411075
7.799999999999988,-1.7143246155349978,230.09826220532202,-0.553477453594365,58.75629761289968,9305665.328759585
7.899999999999988,-1.7702130772253741,236.05273652591558,-0.5588846169037642,59.54474320593571,9300868.505500937
7.999999999999988,-1.8266204868369638,242.08614598553822,-0.564074096115897,60.33409459622657,9296071.684469642
8.099999999999987,-1.8835247310218897,248.19858111453004,-0.5690424418492585,61.12435128991833,9291274.865786862
8.199999999999987,-1.9409030146952717,254.3901323647897,-0.5737828367338211,61.91551250259663,9286478.04955861
8.299999999999986,-1.998731618880405,260.66089008023795,-0.5782860418513333,62.70757715448233,9281681.235874439
8.399999999999986,-2.056985684744249,267.01094446841745,-0.5825406586384387,63.500543881795124,9276884.424807396
8.499999999999986,-2.1156390258628335,273.4403855764845,-0.5865334111858445,64.29441108067064,9272087.616414621
8.599999999999985,-2.1746639719148892,279.94930327502607,-0.5902494605205575,65.08917698541526,9267290.810738686
8.699999999999985,-2.234031246912764,286.53778725261367,-0.5936727499787464,65.88483977587609,9262494.007809607
8.799999999999985,-2.293709884502892,293.20592702287917,-0.5967863759012805,66.68139770265525,9257697.207647434
8.899999999999984,-2.353667181769332,299.95381194435606,-0.599572972664402,67.47884921476893,9252900.410265263
8.999999999999984,-2.4138685094353862,306.78153095610884,-0.6020132766605423,68.27719011752757,9248103.615672516
9.099999999999984,-2.474277702314271,313.6891731762423,-0.6040919287888498,69.07642220133482,9243306.823879149
9.199999999999983,-2.534856946574035,320.67682768143374,-0.605792442597642,69.87654505191409,9238510.034898065
9.299999999999983,-2.5955668654368305,327.74458355312584,-0.6070991886279512,70.67755871692079,9233713.248747695
9.399999999999983,-2.6563666286262935,334.89252992201466,-0.6079976318946323,71.47946368888852,9228916.465455083
9.499999999999982,-2.717214076773704,342.12075600838426,-0.6084744814741054,72.28226086369585,9224119.68505812
9.599999999999982,-2.77806585438576,349.4293511568057,-0.6085177761205585,73.08595148421428,9219322.907607269
9.699999999999982,-2.838880010373935,356.8184048440476,-0.6081415598817491,73.8905368724193,9214526.133166734
9.799999999999981,-2.8996111763937775,364.2880066657284,-0.6073116601984246,74.69601821680783,9209729.361801682
9.89999999999998,-2.960213097518782,371.8382464037706,-0.606019211250042,75.50239738042214,9204932.593592376
9.99999999999998,-3.020639487287112,379.4692155773605,-0.6042638976833015,76.30969173589897,9200135.828640925
10.09999999999998,-3.0808426102603574,387.18100446847063,-0.6020312297324526,77.11788891110108,9195339.067060012
10.19999999999998,-3.140774195196909,394.9737035729971,-0.5993158493655122,77.92699104526466,9190542.308976457
10.29999999999998,-3.2003855306786533,402.84740360178836,-0.5961133548174445,78.7370002879123,9185745.554531772
10.399999999999979,-3.259627529544206,410.8021954787438,-0.5924199886555264,79.5479187695544,9180948.803878017
10.499999999999979,-3.3184507725210453,418.83817033655635,-0.588232429768392,80.35974857812575,9176152.057175683
10.599999999999978,-3.376805531452378,426.9554195104836,-0.5835475893133271,81.17249173927252,9171355.314591512
10.699999999999978,-3.43464177284969,435.1540345304577,-0.5783624139731212,81.98615019974119,9166558.576296251
10.799999999999978,-3.4919091431343103,443.43410711179877,-0.5726737028462034,82.80072581341093,9161761.842462417
10.899999999999977,-3.548556937497063,451.7957291447738,-0.5664779436275301,83.61622032975023,9156965.113262156
10.999999999999977,-3.604534054773282,460.2389926832407,-0.5597711727621872,84.43263538466914,9152168.388865279
11.099999999999977,-3.659788941085734,468.76398993262796,-0.5525488631245209,85.24997249387256,9147371.66943752
11.199999999999976,-3.714269525240818,477.3708132375173,-0.5448058415508433,86.06823304889375,9142574.955139091
11.299999999999976,-3.7679231489700356,486.05955506911766,-0.5365362372921713,86.88741831600332,9137778.246123575
11.399999999999975,-3.8206964950913287,494.8303080129329,-0.527733461212931,87.70752943815232,9132981.542537183
11.499999999999975,-3.872535516530812,503.68316475693547,-0.518390214394831,88.52856744002567,9128184.844518393
11.599999999999975,-3.923385368906613,512.618218080552,-0.508498523758011,89.35053323616515,9123388.152197968
11.699999999999974,-3.973190349048685,521.6355608447501,-0.49804980142071736,90.173427641981,9118591.46569934
11.799999999999974,-4.02189384142982,530.7352859834824,-0.48703492381135177,90.99725138732353,9113794.785139317
11.899999999999974,-4.069438274033873,539.9174864966969,-0.4754443260405198,91.82200513214548,9108998.110629091
11.999999999999973,-4.115765084708233,549.1822554450637,-0.46326810674360214,92.64768948366729,9104201.442275466
12.099999999999973,-4.160814698559796,558.5296859465011,-0.45049613851563286,93.47430501437422,9099404.780182254
12.199999999999973,-4.2045265164768555,567.9598711745144,-0.43711817917059825,94.30185228013286,9094608.124451768
12.299999999999972,-4.2468389144118515,577.4729043582865,-0.4231239793499634,95.13033183772062,9089811.475186355
12.399999999999972,-4.287689252657591,587.0688787843977,-0.40850338245739515,95.95974426111192,9085014.832489885
12.499999999999972,-4.327013894005608,596.747887799993,-0.39324641348016837,96.79009015595335,9080218.196469145
12.599999999999971,-4.364748229399721,606.5100248171707,-0.37734335394113167,97.62137017177625,9075421.567235079
12.69999999999997,-4.400826709497186,616.3553833183336,-0.36078480097464904,98.45358501162906,9070624.944903834
12.79999999999997,-4.4351828804273365,626.2840568622285,-0.3435617093015095,99.28673543894942,9065828.32959758
12.89999999999997,-4.467749421993108,636.2961390903914,-0.3256654156577228,100.12082228162912,9061031.721445072
12.99999999999997,-4.4984581865910185,646.3917237337259,-0.3070876459791049,100.95584643334503,9056235.120581973
13.09999999999997,-4.52724023722395,656.570904618959,-0.2878205063293091,101.79180885233066,9051438.527150895
13.199999999999969,-4.554025883139847,666.8337756747435,-0.26785645915896733,102.62871055784424,9046641.94130122
13.299999999999969,-4.578744711837699,677.1804309372085,-0.24718828697852144,103.46655262464984,9041845.36318869
13.399999999999968,-4.601325616427978,687.6109645547954,-0.2258090459027851,104.30533617586907,9037048.792974824
13.499999999999968,-4.621696817605267,698.125470792254,-0.20371201177289322,105.14506237458559,9032252.230826167
13.599999999999968,-4.639785879773084,708.7240440337134,-0.18089062167817627,105.98573241459425,9027455.676913446
13.699999999999967,-4.655519721142083,719.406778784782,-0.1573384136899848,106.82734751068548,9022659.13141065
13.799999999999967,-4.668824617891064,730.1737696736664,-0.13304896748981532,107.6699088888437,9017862.594494099
13.899999999999967,-4.679626202724919,741.0251114513383,-0.10801584833854865,108.51341777671915,9013066.066341521
13.999999999999966,-4.687849458375856,751.9608989908088,-0.08223255650936798,109.35787539470586,9008269.547131205
14.099999999999966,-4.69341870676726,762.9812272856012,-0.05569248391403735,110.20328294792456,9003473.03704123
14.199999999999966,-4.696257594688502,774.0861914475382,-0.028388879212416347,111.0496416193702,8998676.536248831
14.299999999999965,-4.6962890769116035,785.2758867039819,-0.0003148222310162263,111.89695256443679,8993880.04492989
14.399999999999965,-4.6934353977165815,796.55040839468,0.02853679195021774,112.74521690698066,8989083.563258594
14.499999999999964,-4.687618071783388,807.9098519683826,0.0581732593319417,113.59443573702562,8984287.091407245
14.599999999999964,-4.6787578653582775,819.3543129793977,0.0886020642511036,114.44461011015164,8979490.62954623
14.699999999999964,-4.666774778516386,830.8838870842523,0.11983086841891373,115.295741048545,8974694.177844144
14.799999999999963,-4.6515880292266525,842.4986700386146,0.1518674928973296,116.14782954362323,8969897.73646804
14.899999999999963,-4.633116039787304,854.1987576946233,0.18471989439348008,117.00087656008739,8965101.30558379
14.999999999999963,-4.6112764260476045,865.9842459987431,0.2183961373970021,117.85488304119795,8960304.885356545
15.099999999999962,-4.585985989672337,877.8552309902456,0.2529043637526793,118.70984991502453,8955508.475951249
15.199999999999962,-4.557160713547138,889.811808800384,0.28825276125198857,119.56577810138414,8950712.077533184
15.299999999999962,-4.524715760272333,901.8540756523001,0.32444953274805605,120.42266851916116,8945915.69026853
15.399999999999961,-4.4885654735565845,913.9821278616697,0.3615028671574783,121.28052209369592,8941119.314324895
15.499999999999961,-4.44862338220458,926.1960618380633,0.39942091352004205,122.13933976393649,8936322.949871814
15.59999999999996,-4.404802206298987,938.4959740869705,0.4382117590559397,122.99912248907142,8931526.597081168
15.69999999999996,-4.357013865108701,950.88196121241,0.477883411902859,123.8598712543956,8926730.256127538
15.79999999999996,-4.3051694862141066,963.3541199200307,0.5184437889459443,124.72158707620662,8921933.927188465
15.89999999999996,-4.249179415325564,975.9125470205888,0.559900708885425,125.58427100558112,8917137.610444613
15.99999999999996,-4.1889532262823685,988.5573394336825,0.6022618904319534,126.44792413093647,8912341.306079835
16.09999999999996,-4.124399730753447,1001.2885941916165,0.6455349552892233,127.31254757934066,8907545.014281157
16.19999999999996,-4.055426987214793,1014.1064084432753,0.6897274353865374,128.1781425165882,8902748.735238668
16.29999999999996,-3.981942308848088,1027.0108794578864,0.7348467836670535,129.04471014611184,8897952.469145333
16.399999999999963,-3.903852270085564,1040.0021046285708,0.7809003876252427,129.91225170684507,8893156.216196772
16.499999999999964,-3.8210627116134006,1053.0801814755896,0.8278955847216329,130.78076847018855,8888359.976590967
16.599999999999966,-3.733478743735039,1066.245207649216,0.8758396787836141,131.650261736264,8883563.750527965
16.699999999999967,-3.641004748082453,1079.4972809321819,0.9247399565258603,132.5207328296598,8878767.538209567
16.79999999999997,-3.543544377743646,1092.8364992416703,0.9746037033880683,133.39218309488422,8873971.33983902
16.89999999999997,-3.441000555945088,1106.2629606308449,1.0254382179855774,134.26461389174523,8869175.155620744
16.99999999999997,-3.3332755039186637,1119.7767593052426,1.0772505202642422,135.13798674397776,8864378.98576008
17.099999999999973,-3.220270681525106,1133.3779936332198,1.1300482239355802,136.01234327977232,8859582.830463294
17.199999999999974,-3.101886808522285,1147.0667621227417,1.1838387300282096,136.887684895218,8854786.68993715
17.299999999999976,-2.9780238593485566,1160.843163421182,1.2386294917372862,137.76401298440297,8849990.564388715
17.399999999999977,-2.8485810580106388,1174.7072963149108,1.2944280133791786,138.64132893728743,8845194.45402546
17.49999999999998,-2.7134568731005646,1188.6592597287495,1.3512418491007425,139.51963413838746,8840398.359055288
17.59999999999998,-2.5725490131720923,1202.6991527253833,1.4090785992847223,140.3989299663382,8835602.279686604
17.69999999999998,-2.4257483065732064,1216.8270744434303,1.4680070659888593,141.2792171804695,8830806.216128428
17.799999999999983,-2.272951520291095,1231.0431246850258,1.527967862821112,142.16050241595423,8826010.16869045
