t[s],x[m],y[m],vx[m/s],vy[m/s],mass[kg]
0.1,-0.00012239608588749423,1.5688886012615615,-0.0012239608588749422,0.6888860126156158,12974298.839443479
0.2,-0.0003667575581515406,1.7067471406851842,-0.0024436147226404633,1.3785853942362278,12967982.984108409
0.30000000000000004,-0.0007315443153008943,1.9136570943809583,-0.0036478675714935365,2.06909953695774,12961667.128796468
0.4,-0.0012141141160415094,2.1897000778480815,-0.004825698007406151,2.7604298346712324,12955351.27350436
0.5,-0.0018107172865543695,2.5349578461561273,-0.0059660317051286,3.4525776830804564,12949035.41822875
0.6,-0.0025164919922631914,2.9495122941006335,-0.007057747057088217,4.145544479445061,12942719.562966265
0.7,-0.00332546009310063,3.433445456332745,-0.008089681008374388,4.839331622321111,12936403.707713509
0.7999999999999999,-0.004230523585173895,3.9868395074627347,-0.009050634920732655,5.533940511299901,12930087.852467064
0.8999999999999999,-0.005223461631406864,4.60977676213731,-0.009929380462329685,6.229372546745752,12923771.997223498
0.9999999999999999,-0.006294928183409966,5.302339675090658,-0.010714665520031022,6.925629129533478,12917456.141979378
1.0999999999999999,-0.0074344501965019506,6.06461084116928,-0.011395220130919842,7.622711660786219,12911140.286731267
1.2,-0.00863042643947835,6.896672995330715,-0.011959762429763982,8.320621541614353,12904824.431475742
1.3,-0.009870126900391112,7.798609012616331,-0.012397004609127623,9.019360172856157,12898508.576209396
1.4000000000000001,-0.011139692789272364,8.770501908098426,-0.012695658888812512,9.718928954820958,12892192.720928848
1.5000000000000002,-0.012424137138402295,9.81243483680197,-0.012844443491299314,10.419329287035444,12885876.865630746
1.6000000000000003,-0.013707346000387775,10.924491093601354,-0.012832088619854803,11.120562567993844,12879561.01031178
1.7000000000000004,-0.014972080243984012,12.106754113092622,-0.012647342435962366,11.82263019491268,12873245.154968685
1.8000000000000005,-0.01619997794725683,13.3593074694417,-0.012278977032728185,12.525533563490766,12866929.299598247
1.9000000000000006,-0.017371557387348007,14.682234876209213,-0.011715794400911785,13.229274067675142,12860613.444197316
2.0000000000000004,-0.01846622062577091,16.075620186152573,-0.010946632384229013,13.933853099433607,12854297.588762807
2.1000000000000005,-0.01946225768782857,17.539547391006025,-0.009960370620576604,14.639272048534533,12847981.733291708
2.2000000000000006,-0.020336851334411325,19.074100621239484,-0.008745936465827567,15.345532302334584,12841665.877781088
2.3000000000000007,-0.02106608242409664,20.679364145796985,-0.007292310896853153,16.052635245575008,12835350.022228101
2.400000000000001,-0.021624935863139898,22.355422371815695,-0.00558853439043258,16.760582260187096,12829034.166629998
2.500000000000001,-0.02198730714061164,24.10235984432644,-0.0036237127747174402,17.46937472510744,12822718.310984123
2.600000000000001,-0.022126009445604892,25.920261245936796,-0.001387023049932489,18.179014016103554,12816402.455287926
2.700000000000001,-0.02201278136310477,27.809211396497844,0.0011322808250011978,18.889501505610472,12810086.599538965
2.800000000000001,-0.02161829514478348,29.769295252755725,0.003944862183212897,19.60083856257883,12803770.743734915
2.9000000000000012,-0.020912165550655143,31.80059790798922,0.00706129594128335,20.313026552334975,12797454.88787357
3.0000000000000013,-0.019862959257198987,33.903204591634584,0.010492062934561569,21.026066836453648,12791139.031952845
3.1000000000000014,-0.01843820482723465,36.077200668898946,0.014247544299643401,21.739960772643656,12784823.175970787
3.2000000000000015,-0.016604403236511165,38.32267164036365,0.018338015907234835,22.45470971464707,12778507.319925575
3.3000000000000016,-0.014327038951650887,40.639703141578885,0.022773642848602785,23.17031501215232,12772191.463815523
3.4000000000000017,-0.011570591553772241,43.02838094265105,0.027564473978786447,23.88677801072164,12765875.607639086
3.5000000000000018,-0.008298547901799971,45.48879094782437,0.03272043651972271,24.604100051733216,12759559.751394859
3.600000000000002,-0.0044734148291595555,48.02101919505821,0.03825133072640416,25.32228247233841,12753243.895081587
3.700000000000002,-5.673236724322312e-05,50.62515185560164,0.044166824619163325,26.04132660543437,12746928.038698161
3.800000000000002,0.004990912511270758,53.30127523356688,0.0504764487851398,26.761233779652308,12740612.182243623
3.900000000000002,0.010709871636466636,56.049475765503054,0.05718959125195877,27.482005319361747,12734296.325717168
4.000000000000002,0.017141420880127416,58.869840019972145,0.06431549243660781,28.203642544690922,12727980.469118143
4.100000000000001,0.024327744897374062,61.762454697128504,0.07186324017246647,28.926146771563566,12721664.61244605
4.200000000000001,0.03231192137911416,64.72740662830373,0.07984176481740096,29.649519311752222,12715348.755700547
4.300000000000001,0.04113790482369383,67.76478277559855,0.08825983444579676,30.373761472948235,12709032.89888145
4.4,0.05085050983642964,70.87467023148339,0.09712605012735809,31.0988745588485,12702717.04198873
4.5,0.061495393965975545,74.0571562184093,0.10644884129545902,31.824859869259058,12696401.185022514
4.6,0.07311904008675427,77.31232808843086,0.11623646120778727,32.55171870021553,12690085.327983085
4.699999999999999,0.08576873833695123,80.6402733228429,0.12649698250196964,33.27945234412045,12683769.470870879
4.799999999999999,0.09949256762183342,84.04107953183264,0.137238292848822,34.008062089897365,12677453.613686487
4.899999999999999,0.1143393766924148,87.51483445414881,0.14846809070581374,34.73754922316172,12671137.75643065
4.999999999999998,0.1303587648097433,91.06162595678965,0.160193881173285,35.46791502640838,12664821.899104262
5.099999999999998,0.14760106200533332,94.68154203471121,0.17242297195590042,36.19916077921562,12658506.04170836
5.1999999999999975,0.16611730894850987,98.37467081055776,0.18516246943176543,36.93128775846545,12652190.184244128
5.299999999999997,0.1859592364316676,102.14110053441577,0.19841927483157712,37.66429723858009,12645874.326712893
5.399999999999997,0.2071792444846796,105.98091958359319,0.2122000805301199,38.3981904917742,12639558.46911612
5.4999999999999964,0.2298303811299151,109.89421646242548,0.22651136645235526,39.13296878832282,12633242.611455405
5.599999999999996,0.2539663207895449,113.88107980210992,0.24135939659629765,39.868633396844494,12626926.753732482
5.699999999999996,0.27964134235702476,117.94159836056986,0.25675021567479833,40.60518558459938,12620610.895949205
5.799999999999995,0.30691030694485477,122.07586102235004,0.27268964587830014,41.3426266178019,12614295.038107557
5.899999999999995,0.3358286353209105,126.28395679854479,0.2891832837605574,42.08095776194748,12607979.180209635
5.999999999999995,0.3664522850458353,130.5659748267601,0.30623649724924806,42.82018028215313,12601663.322257651
6.099999999999994,0.398837727324169,134.92200437111123,0.3238544227833367,43.56029544351113,12595347.464253923
6.199999999999994,0.43304192358206683,139.35213482225677,0.3420419625789782,44.301304511455555,12589031.60620087
6.299999999999994,0.4691223017846347,143.85645569747086,0.36080378202567853,45.043208752141,12582715.748101013
6.399999999999993,0.5071367325060707,148.43505664075417,0.38014430721436065,45.786009432832955,12576399.889956959
6.499999999999993,0.5471435047659612,153.0880274229851,0.4000677225989048,46.52970782230933,12570084.031771401
6.5999999999999925,0.5892013016452277,157.81545794211235,0.42057796879266424,47.2743051912724,12563768.173547111
6.699999999999992,0.6333691756953654,162.61743822338943,0.4416787405013774,48.0198028127707,12557452.315286933
6.799999999999992,0.6797065241547479,167.49405841965245,0.46337348459382466,48.76620196263008,12551136.456993775
6.8999999999999915,0.7282730639858976,172.44540881164178,0.48566539831149746,49.51350391989332,12544820.598670606
6.999999999999991,0.7791288067477448,177.47157980836855,0.5085574276184711,50.26170996726765,12538504.740320446
7.099999999999991,0.8323340333170043,182.57266194752648,0.5320522656925954,51.01082139157936,12532188.881946359
7.19999999999999,0.8879492684729077,187.74874589594998,0.5561523515590336,51.76083948423488,12525873.02355145
7.29999999999999,0.9460352553596181,192.99992245011873,0.5808598688671038,52.51176554168748,12519557.16513885
7.39999999999999,1.0066529298407474,198.32628253670964,0.6061767448112928,53.263600865908984,12513241.306711718
7.499999999999989,1.0698633947604708,203.7279172131962,0.6321046491972326,54.01634676486554,12506925.448273228
7.599999999999989,1.1357278941258055,209.20491766849588,0.6586449936533472,54.770004552996824,12500609.589826563
7.699999999999989,1.204307787224685,214.75737522366566,0.6857989309887937,55.5245755516978,12494293.731374908
7.799999999999988,1.2756645226945091,220.3853813326459,0.7135673546982412,56.28006108980223,12487977.872921443
7.899999999999988,1.3498596125559033,226.0890275830526,0.741950898613942,57.03646250406716,12481662.014469335
7.999999999999988,1.4269546062264507,231.86840569701835,0.7709499367054734,57.793781139657554,12475346.156021733
8.099999999999987,1.5070110645291943,237.72360753208136,0.8005645830274369,58.55201835063026,12469030.297581756
8.199999999999987,1.5900905337107265,243.654725082123,0.8307946918153226,59.31117550041647,12462714.439152494
8.299999999999986,1.6762545194836922,249.6618504783532,0.861639857729657,60.07125396230181,12456398.580736993
8.399999999999986,1.7655644611085395,255.74507599034354,0.8930994162484738,60.832255119903394,12450082.722338252
8.499999999999986,1.8580817055293453,261.90449402710783,0.9251724442080576,61.59418036764278,12443766.863959214
8.599999999999985,1.9538674815785277,268.14019713822927,0.9578577604918257,62.35703111121423,12437451.005602762
8.699999999999985,2.052982874265241,274.452278015034,0.9911539268671334,63.12080876804734,12431135.147271715
8.799999999999985,2.155488799162211,280.8408294918103,1.0250592489696975,63.88551476776323,12424819.288968813
8.899999999999984,2.2614459769057365,287.30594454707267,1.0595717774352518,64.6511505526236,12418503.430696718
8.999999999999984,2.3709149078235328,293.84771630486983,1.0946893091779637,65.41771757797169,12412187.572458008
9.099999999999984,2.4839558467050384,300.4662380361363,1.1304093888150566,66.18521731266452,12405871.714255169
9.199999999999983,2.6006287777287382,307.16160316008586,1.1667293102369987,66.95365123949563,12399555.856090587
9.299999999999983,2.720993389560992,313.9339052456466,1.2036461183225353,67.7230208556074,12393239.997966547
9.399999999999983,2.845109050640768,320.78323801293584,1.2411566107977623,68.4933276728925,12386924.139885228
9.499999999999982,2.973034784664603,327.7096953347742,1.2792573402383507,69.26457321838343,12380608.281848697
9.599999999999982,3.1048292462859983,334.7133712382372,1.3179446162139536,70.03675903462968,12374292.423858903
9.699999999999982,3.240550697043373,341.79435990624336,1.3572145075737463,70.80988668006177,12367976.565917674
9.799999999999981,3.38025698153057,348.9527556791775,1.397062844871967,71.58395772934144,12361660.708026715
9.89999999999998,3.524005503823795,356.18865305654725,1.4374852229322495,72.35897377369743,12355344.850187598
9.99999999999998,3.67185320417874,363.5021466986719,1.4784770035494528,73.13493642124617,12349028.99240177
10.09999999999998,3.823856536011503,370.89333142840155,1.5200333183276262,73.91184729729682,12342713.134670535
10.19999999999998,3.9800714431767683,378.36230223286555,1.562149071652656,74.6897080446401,12336397.276995067
10.29999999999998,4.140553337556576,385.9091542652476,1.6048189437980775,75.46852032382034,12330081.419376394
10.399999999999979,4.305357076972821,393.53398284658664,1.648037394162449,76.2482858133902,12323765.561815405
10.499999999999979,4.474536943436482,401.2368834676014,1.6917986646366177,77.02900621014767,12317449.704312844
10.599999999999978,4.648146621746395,409.01795179053687,1.7360967830991256,77.81068322935481,12311133.84686931
10.699999999999978,4.82623917845019,416.87728365103067,1.7809255670379427,78.59331860493776,12304817.989485255
10.799999999999978,5.008867041179853,424.81497505999744,1.8262786272966267,79.37691408966782,12298502.13216098
10.899999999999977,5.196081978374148,432.8311222055297,1.8721493719429536,80.16147145532285,12292186.274896646
10.999999999999977,5.387935079399947,440.92582145481265,1.9185310102579847,80.94699249282915,12285870.41769226
11.099999999999977,5.584476735084293,449.09916935605094,1.9654165568434696,81.73347901238303,12279554.560547685
11.199999999999976,5.785756618668835,457.35126264040616,2.0127988358454205,82.52093284355209,12273238.703462634
11.299999999999976,5.991823667197997,465.6821982239417,2.0606704852916202,83.3093558353559,12266922.846436678
11.399999999999975,6.202726063352075,474.0920732095743,2.1090239615407738,84.09874985632582,12260606.989469238
11.499999999999975,6.418511217736168,482.5809848890287,2.157851543840936,84.88911679454381,12254291.132559596
11.599999999999975,6.6392257516356485,491.1490307447947,2.2071453389947986,85.68045855766005,12247975.275706891
11.699999999999974,6.864915480248584,499.7963084520836,2.2568972861293526,86.47277707288936,12241659.418910123
11.799999999999974,7.095625396405322,508.52291588078225,2.307099161567383,87.26607428698621,12235343.562168159
11.899999999999974,7.331399654785142,517.3289510974021,2.3577425837981996,88.06035216619837,12229027.705479728
11.999999999999973,7.572281556639637,526.2145123670219,2.4088190185449485,88.8556126961991,12222711.848843431
12.099999999999973,7.818313535032217,535.1796981552218,2.460319783925795,89.65185788199798,12216395.992257744
12.199999999999973,8.069537140602838,544.2246071300049,2.5122360557062153,90.44908974783039,12210080.135721017
12.299999999999972,8.325993027866796,553.3493381637074,2.5645588726395814,91.24731033702568,12203764.279231481
12.399999999999972,8.587720942056114,562.5539903348929,2.6172791418931833,92.04652171185431,12197448.422787257
12.499999999999972,8.854759706511791,571.8386629302282,2.6703876445567643,92.84672595335384,12191132.566386353
12.599999999999971,9.127147210634853,581.2034554463416,2.723875041230623,93.64792516113418,12184816.710026672
12.69999999999997,9.40492039840388,590.6484675916579,2.7777318776902704,94.45012145316221,12178500.853706019
12.79999999999997,9.68811525746634,600.1737992882105,2.831948590624598,95.25331696552601,12172184.997422103
12.89999999999997,9.976766808810787,609.7795506734284,2.8865155134444667,96.05751385217896,12165869.141172545
12.99999999999997,10.270909097026646,619.4658221018948,2.941422882158591,96.862714284664,12159553.284954883
13.09999999999997,10.570575181158,629.2327141470766,2.9966608413135414,97.66892045181844,12153237.428766577
13.199999999999969,10.875797126157469,639.0803276030226,3.0522194499946753,98.47613455945954,12146921.572605016
13.299999999999969,11.186605994945943,649.0087634860278,3.1080886878847402,99.28435883005135,12140605.716467526
13.399999999999968,11.503031841083631,659.0181230362631,3.1642584613768903,100.09359550235311,12134289.860351374
13.499999999999968,11.825103702057511,669.108507719368,3.220718609738802,100.90384683104973,12127974.004253777
13.599999999999968,12.152849593189966,679.2800192280046,3.2774589113245596,101.71511508636473,12121658.148171902
13.699999999999967,12.486296502173062,689.5327594833701,3.3344690898309453,102.52740255365602,12115342.292102883
13.799999999999967,12.825470384232537,699.8668306366696,3.3917388205947443,103.34071153299523,12109026.436043821
13.899999999999967,13.170396157925301,710.2823350705428,3.44925773692765,104.15504433873087,12102710.579991793
13.999999999999966,13.521097701573835,720.7793754004464,3.5070154364853354,104.970403299036,12096394.72394386
14.099999999999966,13.877597850340557,731.3580544759905,3.565001487667228,105.78679075544069,12090078.86789707
14.199999999999966,14.239918393944908,742.0184753822255,3.623205436043513,106.60420906235032,12083763.011848468
14.299999999999965,14.608080075025494,752.7607414408805,3.6816168108058664,107.42266058654968,12077447.155795109
14.399999999999965,14.982102588149335,763.5849562115499,3.74022513123841,108.24214770669387,12071131.29973405
14.499999999999964,15.36200457946987,774.4912234928286,3.7990199132053566,109.06267281278647,12064815.443662375
14.599999999999964,15.74780364703505,785.4796473233931,3.857990675651813,109.88423830564555,12058499.587577188
14.699999999999964,16.139516341746468,796.550331983029,3.917126947114188,110.70684659635812,12052183.731475627
14.799999999999963,16.537158168970134,807.7033819936014,3.9764182722366472,111.53050010572372,12045867.875354867
14.899999999999963,16.940743590799137,818.9389021199702,4.035854218290051,112.35520126368769,12039552.019212132
14.999999999999963,17.350286028968117,830.2569973708466,4.095424381689807,113.1809525087648,12033236.163044697
15.099999999999962,17.76579786841902,841.657772999592,4.155118394509053,114.00775628745382,12026920.306849897
15.199999999999962,18.18729046151738,853.1413345049564,4.2149259309836085,114.83561505364365,12020604.45062513
15.299999999999962,18.614774132917894,864.7077876317576,4.274836714005112,115.66453126801181,12014288.594367871
15.399999999999961,19.04825818507777,876.3572383714992,4.334840521598761,116.49450739741567,12007972.738075668
15.499999999999961,19.487750904415982,888.0897929629269,4.394927193382108,117.32554591427724,12001656.881746156
15.59999999999996,19.933259568116114,899.9055578925231,4.45508663700131,118.15764929596202,11995341.02537706
15.69999999999996,20.384790451570247,911.8046398949384,4.515308834541316,118.99082002415264,11989025.168966196
15.79999999999996,20.842348836460886,923.7871459533602,4.575583848906406,119.8250605842179,11982709.312511489
15.89999999999996,21.30593901947764,935.8531832998179,4.635901830167559,120.66037346457762,11976393.45601096
15.99999999999996,21.775564321664955,948.0028594154244,4.696253021873132,121.49676115606424,11970077.59946275
16.09999999999996,22.251227098396885,960.2362820305525,4.756627767319311,122.33422615128143,11963761.742865108
16.19999999999996,22.732928749974572,972.5535591249486,4.81701651577686,123.17277094396054,11957445.886216408
16.29999999999996,23.22066973284164,984.9547989277802,4.87740982867068,124.01239802831527,11951130.029515143
16.399999999999963,23.714449571412512,997.4401099176197,4.9377983857087155,124.85310989839522,11944814.172759939
16.499999999999964,24.21426687050819,1010.0096008223636,4.998172990956775,125.69490904743884,11938498.315949548
16.599999999999966,24.720119328393775,1022.6633806190863,5.05852457885584,126.53779796722634,11932182.45908286
16.699999999999967,25.23200375041162,1035.4015585338295,5.118844220178484,127.38177914743294,11925866.6021589
16.79999999999997,25.749916063203724,1048.224244041328,5.179123127921015,128.2268550749831,11919550.745176835
16.89999999999997,26.27385132951653,1061.1315468646685,5.23935266312803,129.07302823340618,11913234.888135972
16.99999999999997,26.803803763581133,1074.1235769748878,5.299524340646051,129.9203011021938,11906919.031035762
17.099999999999973,27.33976674706143,1087.2004445905038,5.359629834802971,130.7686761561597,11900603.173875803
17.199999999999974,27.881732845562436,1100.3622601769841,5.4196609850100765,131.61815586480208,11894287.31665584
17.299999999999976,28.429693825690777,1113.609134446151,5.479609801283425,132.46874269166923,11887971.459375765
17.399999999999977,28.983640672658918,1126.941178355524,5.539468469681407,133.32043909372848,11881655.60203562
17.49999999999998,29.543563608424453,1140.358503107598,5.5992293576553624,134.17324752073907,11875339.744635591
17.59999999999998,30.10945211035547,1153.8612201490607,5.658885019310153,135.02717041462907,11869023.88717602
17.69999999999998,30.681294930412633,1167.4494411699484,5.71842820057164,135.88221020887693,11862708.029657394
17.799999999999983,31.259080114838437,1181.1232781027381,5.777851844258047,136.73836932789752,11856392.172080344
