t[s],x[m],y[m],vx[m/s],vy[m/s],mass[kg]
0.1,-0.007410773334598918,1.5644175819043362,-0.07410773334598918,0.6441758190433622,9087116.837548984
0.2,-0.021677749288276833,1.6933937064818396,-0.14266975953677913,1.2897612457750336,9082806.253299233
0.30000000000000004,-0.03878499249866189,1.8873289702379714,-0.17107243210385054,1.9393526375613175,9078490.281000588
0.4,-0.05841417429532408,2.146313255743596,-0.19629181796662187,2.589842855056246,9074174.123673381
0.5,-0.08025150178679955,2.4704348510061624,-0.21837327491475472,3.2412159526256645,9069857.809228908
0.6,-0.1039540223864224,2.8597817920562543,-0.23702520599622862,3.8934694105009195,9065541.340262001
0.7,-0.12915254319822728,3.314441491104273,-0.2519852081180488,4.54659699048019,9061224.72386645
0.7999999999999999,-0.15545541211716218,3.8345003724440176,-0.2630286891893492,5.200588813397445,9056907.971475555
0.8999999999999999,-0.18245237172095438,4.420043553173866,-0.269969596037922,5.855431807298491,9052591.098289255
0.9999999999999999,-0.20971850209115528,5.071154581084591,-0.27266130370200886,6.511110279107243,9048274.12258994
1.0999999999999999,-0.23681821565488312,5.78791523775343,-0.2709971356372784,7.167606566688392,9043957.064979054
1.2,-0.26330926712697905,6.570405412293495,-0.2649105147209591,7.824901745400654,9039639.947564507
1.3,-0.2887467421637046,7.418703048516895,-0.25437475036725565,8.482976362233995,9035322.793129444
1.4000000000000001,-0.31268698921459154,8.332884165583279,-0.23940247050886915,9.141811170663832,9031005.624312242
1.5000000000000002,-0.3346914542283083,9.313022949773886,-0.22004465013716776,9.801387841906074,9026688.462825939
1.6000000000000003,-0.35433050340470523,10.359191909707476,-0.1963904917639693,10.461689599335894,9022371.32874271
1.7000000000000004,-0.37118713826343797,11.471462091156237,-0.16856634858732722,11.122701814487607,9018054.239865938
1.8000000000000005,-0.3848601995374176,12.649903348959327,-0.13673061273979675,11.784412578030903,9013737.211208662
1.9000000000000006,-0.39496753794897227,13.894584654016114,-0.10107338411554637,12.44681305056786,9009420.254591739
2.0000000000000004,-0.40114895046625765,15.205574428643523,-0.06181412517285403,13.10989774627408,9005103.378370628
2.1000000000000005,-0.40306885979098295,16.582940898215103,-0.01919909324725303,13.773664695715816,9000786.587295575
2.2000000000000006,-0.40041871838931775,18.026752446423124,0.02650141401665216,14.438115482080217,8996469.882504577
2.3000000000000007,-0.3929191213022334,19.537077963980646,0.07499597087084367,15.103255175575221,8992153.26164397
2.400000000000001,-0.38032161493204064,21.11398717780158,0.12597506370192735,15.769092138209327,8987836.719107205
2.500000000000001,-0.3624101920273258,22.757550951004863,0.17911422904714874,16.435637732032838,8983520.246378548
2.600000000000001,-0.33900246609882284,24.467841544881043,0.2340772592850294,17.102905938761804,8979203.832465272
2.700000000000001,-0.3099505214905092,26.244932835563347,0.29051944608313623,17.77091290682302,8974887.464399384
2.800000000000001,-0.275141438274453,28.088900479939895,0.34809083216056225,18.439676443765467,8970571.127788233
2.9000000000000012,-0.23449749401247377,29.999822027258478,0.4064394426197919,19.109215473185834,8966254.807392398
3.0000000000000013,-0.1879760480023138,31.97777693771062,0.4652144601015997,19.779549104521408,8961938.4877092
3.1000000000000014,-0.13556911489358,34.02284655245122,0.5240693310873379,20.450696147406028,8957622.153540803
3.2000000000000015,-0.07730263555221689,36.13511409727003,0.5826647934136312,21.12267544818815,8953305.790527347
3.3000000000000016,-0.013235460713096461,38.31466458021766,0.6406717483912043,21.79550482947623,8948989.385627594
3.4000000000000017,0.05654193891046495,40.56158464527738,0.6977739962356141,22.469200650597198,8944672.927532176
3.5000000000000018,0.1319090192219463,42.87596238871528,0.7536708031148135,23.14377743437904,8940356.406997615
3.600000000000002,0.21271694728161644,45.257887145699144,0.8080792805967011,23.819247569838627,8936039.817092612
3.700000000000002,0.2987906032983166,47.707449255430504,0.8607365601670014,24.49562109731358,8931723.153351571
3.800000000000002,0.3899307780473412,50.22473981337423,0.911401747490246,25.172905579437224,8927406.41383393
3.900000000000002,0.48591654236675086,52.80985041919774,0.9598576431940966,25.851106058235075,8923089.599091198
4.000000000000002,0.5865077642827919,55.46287292876068,1.0059122191604104,26.530225095629422,8918772.712046884
4.100000000000001,0.6914477484421053,58.18389921794822,1.0493998415931338,27.210262891875384,8914455.757797292
4.200000000000001,0.8004659718908882,60.97302096534867,1.090182234487828,27.891217474004435,8910138.743343668
4.300000000000001,0.9132808898440531,63.83032945977778,1.1281491795316487,28.573084944291132,8905821.677268138
4.4,1.0296027849334344,66.75591543749184,1.1632189508938122,29.25585977714051,8901504.569367295
4.5,1.1491366335134774,69.74986895265724,1.1953384858004297,29.939535151653946,8897187.430258242
4.6,1.271584962933181,72.8122792833061,1.2244832941970354,30.62410330648863,8892870.270972172
4.699999999999999,1.3966506742491118,75.94323487365418,1.250657113159309,31.309555903480753,8888553.102550391
4.799999999999999,1.5240398056480216,79.14282331233801,1.2738913139890982,31.995884386838256,8884235.93565698
4.899999999999999,1.6534642128581265,82.41113134488738,1.2942440721010495,32.68308032549364,8879918.78022106
4.999999999999998,1.784644144042054,85.74824491762676,1.311799311839275,33.37113572739386,8875601.64512011
5.099999999999998,1.9173106880660322,89.15424924923029,1.3266654402397833,34.06004331603528,8871284.537913792
5.1999999999999975,2.051208076611303,92.62922892536614,1.338973885452706,34.74979676135851,8866967.464635618
5.299999999999997,2.1860958223155147,96.17326801127885,1.3488774570421183,35.4403908591271,8862650.429647435
5.399999999999997,2.3217506769832985,99.78645017678335,1.3565485466778386,36.131821655044995,8858333.435559282
5.4999999999999964,2.4579683958647687,103.46885882798762,1.3621771888146996,36.824086512042705,8854016.483214764
5.599999999999996,2.5945652960463756,107.22057724011759,1.3659690018160688,37.51718412129975,8849699.571739746
5.699999999999996,2.7313795991082945,111.04168868607746,1.3681430306191908,38.21111445959879,8845382.698650056
5.799999999999995,2.8682692803569525,114.93227667290478,1.3688968124865795,38.905879868273125,8841065.86001191
5.899999999999995,3.0051194132906014,118.89242481618021,1.368501329336491,39.6014814327543,8836749.05063517
5.999999999999995,3.1418396746333443,122.92221704364347,1.3672026134274275,40.29792227463264,8832432.264325712
6.099999999999994,3.278364754904712,127.02173766395246,1.365250802713676,40.99520620308992,8828115.49415868
6.199999999999994,3.414654549792531,131.1910714139557,1.3628979488781905,41.693337500032534,8823798.732754996
6.299999999999994,3.5506941219447827,135.43030348337106,1.3603957215225144,42.3923206941536,8819481.972567802
6.399999999999993,3.6864934380336485,139.73951951689435,1.357993160888657,43.09216033523282,8815165.206162976
6.499999999999993,3.8220868879878758,144.11880559465348,1.3559344995422709,43.79286077759121,8810848.426483897
6.5999999999999925,3.9575325950985367,148.56824819274266,1.3544570711066102,44.494425980891904,8806531.627091689
6.699999999999992,4.09291152739789,153.08793412629296,1.3537893229935345,45.19685933550315,8802214.802373389
6.799999999999992,4.2283264222808,157.67795047813692,1.3541489488290968,45.90016351843954,8797897.947711984
6.8999999999999915,4.363900537772228,162.33838451658946,1.3557411549142844,46.60434038452544,8793581.059613843
6.999999999999991,4.499776245132911,167.06932360618316,1.3587570736068326,47.309390895937156,8789264.135790791
7.099999999999991,4.6361134786297935,171.87085511535676,1.363372334968821,48.01531509173611,8784947.175195822
7.19999999999999,4.773088059270701,176.74306632510303,1.369745806409071,48.72211209746273,8780630.178013114
7.29999999999999,4.910889910107882,181.68604434244048,1.3780185083718108,49.42978017337451,8776313.145604623
7.39999999999999,5.049721181347648,186.69987602229392,1.3883127123976622,50.138316798534326,8771996.080416981
7.499999999999989,5.1897943039600944,191.78464790096692,1.400731226124466,50.84771878672983,8767678.98585365
7.599999999999989,5.331329990762059,196.940446143884,1.4153568680196447,51.55798242917086,8763361.866118345
7.699999999999989,5.474555204048003,202.16735650969372,1.4322521328594353,52.2691036580972,8759044.726036455
7.799999999999988,5.619701108769071,207.46546433217915,1.4514590472106788,52.98107822485446,8754727.570861718
7.899999999999988,5.767001030013614,212.8348545207464,1.4729992124454327,53.69390188567241,8750410.406075597
7.999999999999988,5.91668843312811,218.27561157957726,1.4968740311449535,54.40757058830853,8746093.237186776
8.099999999999987,6.068994944242585,223.7878196448666,1.5230651111447457,55.122080652893445,8741776.069537839
8.199999999999987,6.2241484282378154,229.3715625389384,1.5515348399523092,55.83742894071808,8737458.908125663
8.299999999999986,6.382371140322715,235.02692383946962,1.5822271208489966,56.55361300531205,8733141.757441321
8.399999999999986,6.543877966390748,240.75398696156458,1.6150682606803293,57.270631220949745,8728824.62133431
8.499999999999986,6.708874766206408,246.55283525002957,1.6499679981566062,57.98848288465001,8724507.502904903
8.599999999999985,6.877556832250129,252.4235520789066,1.686820660437198,58.70716828877033,8720190.40442724
8.699999999999985,7.050107475736596,258.3662209551461,1.7255064348646705,59.42668876239513,8715873.327304607
8.799999999999985,7.226696749932,264.3809256232302,1.7658927419540362,60.14704668084107,8711556.272057133
8.899999999999984,7.40748031944507,270.4677501676011,1.8078356951307057,60.86824544370844,8707239.238340972
8.999999999999984,7.592598482669983,276.62677910989703,1.8511816322491281,61.59028942295926,8702922.224996995
9.099999999999984,7.782175353031139,282.8580974982435,1.8957687036115596,62.31318388346512,8698605.230126012
9.199999999999983,7.976318203135173,289.16179098617454,1.9414285010403403,63.036934879309854,8694288.251186762
9.299999999999983,8.17511697437965,295.5379458988692,1.987987712444768,63.76154912694693,8689971.285112243
9.399999999999983,8.37864395282854,301.9866492783272,2.0352697844888934,64.48703379457976,8685654.32843949
9.499999999999982,8.58695361154009,308.50798892814356,2.083096587115502,65.21339649816363,8681337.377447642
9.599999999999982,8.800082616710162,315.1020534353588,2.131290051700713,65.94064507215263,8677020.428299056
9.699999999999982,9.018049994464949,321.7689321765919,2.1796737775478725,66.66878741233069,8672703.477178367
9.799999999999981,9.240857453550118,328.50871530886576,2.2280745908516955,67.39783132273872,8668386.520424636
9.89999999999998,9.468489857867647,335.32149374598885,2.2763240431752925,68.12778437123075,8664069.554652235
9.99999999999998,9.700915841595789,342.2073591217602,2.3242598372814105,68.85865375771354,8659752.576856669
10.09999999999998,9.938088558499942,349.16640374161295,2.3717271690415322,69.59044619852781,8655435.584502267
10.19999999999998,10.179946556010682,356.1987205245869,2.4185799751074044,70.32316782973992,8651118.575589407
10.29999999999998,10.426414763716721,363.30440293772284,2.464682077060397,71.05682413135928,8646801.548699839
10.399999999999979,10.67740558510134,370.4835449250937,2.5099082138461952,71.79141987370869,8642484.503019445
10.499999999999979,10.93282008064598,377.7362408337317,2.5541449554464064,72.52695908637959,8638167.438338649
10.599999999999978,11.192549229838487,385.062585338675,2.597291491925081,73.2634450494329,8633850.355031477
10.699999999999978,11.45647525915918,392.46267336925314,2.639260293206932,74.00088030578152,8629533.254014948
10.799999999999978,11.724473022777646,399.93660003855706,2.679977636184653,74.73926669303894,8625216.136691157
10.899999999999977,11.996411422478083,407.48446057781274,2.719383997004366,75.47860539255689,8620899.004874866
10.999999999999977,12.272154853241053,415.10635027710487,2.7574343076297043,76.21889699292107,8616581.860709881
11.099999999999977,12.55156466094356,422.8023644335886,2.79409807702507,76.96014156483753,8612264.706577664
11.199999999999976,12.834500598795138,430.5725983080016,2.8293593785157793,77.70233874413009,8607947.545001827
11.299999999999976,13.120822269606288,438.4171470955676,2.8632167081114943,78.44548787565982,8603630.378552109
11.399999999999975,13.410390540644533,446.33610589703613,2.8956827103824514,79.1895880146854,8599313.209751295
11.499999999999975,13.703068919220756,454.3295696997949,2.926783785762228,79.93463802758727,8594996.040988287
11.599999999999975,13.998724877401262,462.397633369136,2.9565595818050525,80.68063669341068,8590678.874440176
11.699999999999974,14.29723111484289,470.5403916470707,2.9850623744162887,81.42758277934713,8586361.712005714
11.799999999999974,14.598466749595367,478.7579391577539,3.01235634752477,82.17547510683244,8582044.555252068
11.899999999999974,14.902318427570732,487.05037041841405,3.0385167797536417,82.92431260660116,8577727.405376198
11.999999999999973,15.208681342302947,495.4177798545695,3.0636291473221466,83.67409436155467,8573410.26318159
12.099999999999973,15.517460157601777,503.8602618182527,3.0877881529882965,84.42481963683183,8569093.129070519
12.199999999999973,15.828569826733501,512.3779106079528,3.1110966913172393,85.17648789700057,8564776.003051419
12.299999999999972,16.141936302826508,520.970820489032,3.1336647609300705,85.9290988107926,8560458.884760454
12.399999999999972,16.457497136291696,529.6390857134588,3.1556083346518706,86.68265224426862,8556141.773495862
12.499999999999972,16.77520195615532,538.3828005378298,3.1770481986362356,87.43714824370927,8551824.66826328
12.599999999999971,17.09501283331507,547.2020592388164,3.198108771597498,88.1925870098671,8547507.567829931
12.69999999999997,17.416904524838422,556.0969561253642,3.218916915233496,88.94896886547684,8543190.470785292
12.79999999999997,17.740864599515827,565.0675855471741,3.239600746774057,89.70629421809876,8538873.375605788
12.89999999999997,18.06689344595054,574.1140418992201,3.260288464347149,90.46456352046016,8534556.280720945
12.99999999999997,18.395004165502584,583.2364196222665,3.2811071955204176,91.22377723046331,8530239.184578544
13.09999999999997,18.72522235339813,592.4348131995613,3.3021818789554507,91.98393577294812,8525922.085706422
13.199999999999969,19.05758577225927,601.7093171500753,3.323634188611401,92.74503950514014,8521604.982768806
13.299999999999969,19.392143923195228,611.0600260188243,3.345581509359565,93.50708868748926,8517287.874615338
13.399999999999968,19.72895752041799,620.4870343649565,3.3681359722276234,94.27008346132159,8512970.760321282
13.499999999999968,20.06809787609684,629.9904367483965,3.391403556788515,95.03402383440019,8508653.639217813
13.599999999999968,20.40964620284199,639.5703277159098,3.415483267451517,95.79890967513256,8504336.510911645
13.699999999999967,20.753692841802966,649.2268017874887,3.4404663896097603,96.56474071578911,8500019.375293724
13.799999999999967,21.10033642487865,658.9599534439609,3.466435830756828,97.33151656472117,8495702.23253705
13.899999999999967,21.449682979960006,668.7698771166813,3.493465550813574,98.09923672720363,8491385.083084153
13.999999999999966,21.801844988461305,678.6566671801002,3.521620085012995,98.86790063418904,8487067.927625041
14.099999999999966,22.156940404639748,688.6204179478959,3.5509541617844333,99.63750767795752,8482750.767066764
14.199999999999966,22.515091646356453,698.6612236732351,3.5815124171670565,100.40805725339162,8478433.602496015
14.299999999999965,22.876424566993933,708.7791785535754,3.613329206374803,101.17954880340307,8474116.435136344
14.399999999999965,23.241067418217874,718.974376740265,3.6464285122394005,101.95198186689593,8469799.266301721
14.499999999999964,23.60914981315613,729.2469123530221,3.6808239493825696,102.72535612757078,8465482.097348223
14.599999999999964,23.98080169936824,739.596879499208,3.716518862121107,103.49967146185762,8461164.929625634
14.699999999999964,24.356152350697915,750.0243722976389,3.7535065132967462,104.27492798431034,8456847.764430681
14.799999999999963,24.73532938674325,760.5294849065288,3.791770360453347,105.0511260888986,8452530.602963477
14.899999999999963,25.118449732862718,771.1123118472067,3.8312034611946975,105.82826940677981,8448213.446288597
14.999999999999963,25.505634881474183,781.7729474570008,3.871851486114637,106.60635609794107,8443896.295308458
15.099999999999962,25.89700205740996,792.5114862126808,3.913671759357774,107.38538755679946,8439579.15073322
15.199999999999962,26.292663388600975,803.3280227692352,3.9566133119101488,108.16536556554391,8435262.013057316
15.299999999999962,26.692725174894935,814.2226519981278,4.000617862939596,108.94629228892634,8430944.882550687
15.399999999999961,27.097287225781695,825.1954690251046,4.0456205088676125,109.7281702697668,8426627.75925529
15.499999999999961,27.5064422712519,836.246569266681,4.091550454702031,110.51100241576508,8422310.642989293
15.59999999999996,27.920275449611403,847.3760484644735,4.138331783595044,111.29479197792396,8417993.533358527
15.69999999999996,28.338863875303865,858.5840027165976,4.185884256924625,112.07954252124176,8413676.429774564
15.79999999999996,28.76227628900885,869.870528505453,4.23412413704983,112.86525788855336,8409359.331478495
15.89999999999996,29.190572791493974,881.2357227213114,4.28296502485126,113.6519421585844,8405042.237569408
15.99999999999996,29.62380466191405,892.6796826812541,4.332318704200781,114.43959959942741,8400725.14703639
16.09999999999996,30.06201426047473,904.202506143129,4.3820959856068,115.22823461874817,8396408.058792822
16.19999999999996,30.505235014619778,915.8042913143375,4.432207541450474,116.01785171208559,8392090.97171171
16.29999999999996,30.953491487165884,927.4851368553991,4.482564725461066,116.80845541061555,8387773.884660815
16.399999999999963,31.40679952410306,939.2451418783705,4.533080369371778,117.60005022971424,8383456.796536402
16.499999999999964,31.865166479107742,951.0844059403283,4.583669550046826,118.39264061957816,8379139.706294529
16.599999999999966,32.32859151118497,963.0030290322328,4.6342503207722325,119.1862309190446,8374822.612978938
16.699999999999967,32.79706595127016,975.0011115635939,4.684744400851947,119.98082531361054,8370505.515744757
16.79999999999997,33.27057373308447,987.0787543434416,4.735077818143067,120.77642779847709,8366188.413877424
16.89999999999997,33.749091883053836,999.2360585581674,4.7851814996936515,121.57304214725828,8361871.306806422
16.99999999999997,34.23259106367473,1011.4731257468467,4.834991806208963,122.37067188679276,8357554.1941136215
17.099999999999973,34.721036164340866,1023.790057774676,4.884451006661342,123.16932027829394,8353237.075536224
17.199999999999974,35.21438693333784,1036.1869568051634,4.933507689969783,123.9689903048739,8348919.950964493
17.299999999999976,35.71259864446803,1048.663925271692,4.982117111301896,124.7696846652869,8344602.820434625
17.399999999999977,36.21562279158679,1061.2210658490485,5.030241471187604,125.57140577356424,8340285.684117282
17.49999999999998,36.723407804214276,1073.8584814254546,5.077850126274894,126.3741557640597,8335968.5423024045
17.59999999999998,37.235899777334005,1086.5762750755844,5.124919731197305,127.17793650129785,8331651.395381071
17.69999999999998,37.753043208499506,1099.3745500349762,5.171434311655005,127.98274959391819,8327334.243825184
17.799999999999983,38.27478173544258,1112.2534096761701,5.217385269430729,128.78859641193984,8323017.08816585
17.899999999999984,38.801058867508885,1125.2129574868236,5.262771320663055,129.59547810653413,8318699.928971278
17.999999999999986,39.33181870443662,1138.2532970499722,5.307598369277345,130.40339563148513,8314382.766825029
18.099999999999987,39.86700663623905,1151.3745320265261,5.351879318024286,131.21234976554078,8310065.602305391
