t[s],x[m],y[m],vx[m/s],vy[m/s],mass[kg]
0.1,-0.007410773334598918,1.5644175819043362,-0.07410773334598918,0.6441758190433622,9087116.837548984
0.2,-0.0216777142702413,1.6933937161760846,-0.1426694093564238,1.2897613427174832,9082806.253299233
0.30000000000000004,-0.03878478215390543,1.8873290260480302,-0.1710706788366413,1.9393530987194554,9078490.281000827
0.4,-0.05841347076439653,2.1463134158242902,-0.196286886104911,2.5898438977626,9074174.12367492
0.5,-0.08025004974933414,2.470435174015287,-0.21836578984937605,3.241217581909967,9069857.8092343
0.6,-0.10395142470086588,2.859782351593607,-0.23701374951531737,3.893471775783203,9065541.340274125
0.7,-0.12914832735553727,3.3144423780163903,-0.251969026546714,4.54660026422783,9061224.723888418
0.7999999999999999,-0.15544904557723846,3.8345016948772326,-0.2630071822170118,5.200593168608423,9056907.971510654
0.8999999999999999,-0.18244328349407418,4.420045436159572,-0.26994237916835734,5.855437412823386,9052591.09834024
0.9999999999999999,-0.20970611096206432,5.0711571657076755,-0.2726282746799012,6.511117295481037,9048274.12265841
1.0999999999999999,-0.2368019651099685,5.787918679972745,-0.2709585414790418,7.167615142650698,9043957.065064827
1.2,-0.2632886669416601,6.570409881489007,-0.26486701831691567,7.824912015162617,9039639.947665067
1.3,-0.2887214165072485,7.418708725840178,-0.25432749565588375,8.482988443511704,9035322.79323956
1.4000000000000001,-0.3126567310316778,8.332891242186435,-0.23935314524429327,9.141825163462569,9031005.624423837
1.5000000000000002,-0.3346562915976794,9.313031624829192,-0.21999560566001583,9.801403826427563,9026688.462928303
1.6000000000000003,-0.3542906655010627,10.359202390881638,-0.19634373903383318,10.461707660524457,9022371.328823151
1.7000000000000004,-0.3711428732079911,11.47147459696356,-0.16852207706928404,11.122722060819221,9018054.239910742
1.8000000000000005,-0.38481177091953866,12.649918106014008,-0.13668897711547556,11.78443509050447,9013737.211203784
1.9000000000000006,-0.39491522205855467,13.894601893866039,-0.10103451139015995,12.446837878520302,9009420.254523259
2.0000000000000004,-0.40109302774288935,15.20559367430169,-0.061778056843346967,13.109917804356515,9005103.378225291
2.1000000000000005,-0.403009621345267,16.582961874738103,-0.019165936023776593,13.773682004364145,9000786.587061217
2.2000000000000006,-0.4003564616681385,18.026774890917043,0.02653159677128547,14.438130161789383,8996469.88217056
2.3000000000000007,-0.39285414739986524,19.5371015289224,0.07502314268273241,15.103266380053558,8992153.261201568
2.400000000000001,-0.3802542264491504,21.114011418999514,0.1259992095071482,15.769098900771152,8987836.718549864
2.500000000000001,-0.36234069107643047,22.757575314958874,0.17913535372719946,16.435638959593607,8983520.245702064
2.600000000000001,-0.3389311524643061,24.467865355582017,0.2340953861212436,17.102900406231427,8979203.83166788
2.700000000000001,-0.30987769095562206,26.2449552807744,0.29053461508684064,17.770899251923815,8974887.463481762
2.800000000000001,-0.2750673811245074,28.088920597003654,0.3481030983111464,18.43965316229255,8970571.126753414
2.9000000000000012,-0.23443602742040404,29.99983894396461,0.40631353704103357,19.109183469609533,8966254.806245618
3.0000000000000013,-0.1879418446846446,31.977789684500575,0.4649418273575944,19.779507405359652,8961938.486534666
3.1000000000000014,-0.1355775951451047,34.022854109842434,0.523642495395399,20.45064425341858,8957622.15249932
3.2000000000000015,-0.07736991251686584,36.13511538948246,0.5820768262823885,21.122612796400226,8953305.789815016
3.3000000000000016,-0.013378285052614916,38.31465846856071,0.6399162746425092,21.79543079078251,8948989.38546844
3.4000000000000017,0.056309326622630745,40.56156983061119,0.6968761167524566,22.4691136205048,8944672.928169148
3.5000000000000018,0.13157085440351432,42.87593752198849,0.7526152778088356,23.143676913773,8940356.408666508
3.600000000000002,0.21225583927961075,45.25785082986079,0.8068498487609643,23.819133078723052,8936039.82001816
3.700000000000002,0.29818742219519206,47.70740002949145,0.8593158291558131,24.495491996306576,8931723.157748325
3.800000000000002,0.38916436674056276,50.22467603182373,0.9097694454537067,25.17276002332282,8927406.419895515
3.900000000000002,0.48496360818459244,52.80977023754567,0.9579924144402969,25.850942057219395,8923089.606978977
4.000000000000002,0.585342772127622,55.46277428821215,1.0037916394302955,26.530040506664843,8918772.721877258
4.100000000000001,0.69004281489241,58.18377983116532,1.04700042764788,27.21005542953164,8914455.769627633
4.200000000000001,0.7987907602324525,60.972878300492475,1.0874794534004248,27.890984693271566,8910138.757157555
4.300000000000001,0.911302506068983,63.830160722719945,1.1251174583653047,28.572824222274704,8905821.692960227
4.4,1.0272856747454564,66.75571755294717,1.1598316867647331,29.255568302272234,8901504.586728211
4.5,1.14644248031011,69.74963854412631,1.1915680556465378,29.939209911791348,8897187.448959911
4.6,1.268472586698941,72.81201265169466,1.2203010638883085,30.623741075683448,8892870.290554041
4.699999999999999,1.393075931258049,75.942927974413,1.2460334455910798,31.309153227183394,8888553.122407034
4.799999999999999,1.5199554888388642,79.1424717309431,1.2687955758081528,31.995437565301035,8884235.955027558
4.899999999999999,1.6488199527115002,82.410730270457,1.2886446387263604,32.68258539513892,8879918.798181148
4.999999999999998,1.7793863097569627,85.74778911444959,1.3056635704546244,33.370588439925925,8875601.660576345
5.099999999999998,1.9113822888023861,89.15373302595926,1.3199597904542348,34.05943911509663,8871284.549601804
5.1999999999999975,2.04454866253706,92.62864610161556,1.331663737346738,34.74913075656297,8866967.471121646
5.299999999999997,2.178641375480781,96.17261188172118,1.3409271294372092,35.43965780105621,8862650.429333983
5.399999999999997,2.3134333568593703,99.7857134775503,1.347919813785894,36.131015958291236,8858333.426695067
5.4999999999999964,2.4487159059177865,103.46803352607512,1.35282549058416,36.82320048524809,8854016.463908765
5.599999999999996,2.5843006095062995,107.21965443208389,1.355847035885128,37.51620906008764,8849699.53997817
5.699999999999996,2.7200208071787224,111.04065853009163,1.3572019767242278,38.21004098007754,8845382.652317245
5.799999999999995,2.855732712341414,114.93112819890595,1.3571190516269178,38.90469668814324,8841065.79691631
5.899999999999995,2.9913163033002306,118.89114595374794,1.3558359095881665,39.600177548419914,8836748.968552021
5.999999999999995,3.126675982023592,122.9207945314315,1.3535967872336128,40.296485776835574,8832432.161032751
6.099999999999994,3.2617409991559576,127.02015695982499,1.3506501713236556,40.993624283934956,8828115.3674694
6.199999999999994,3.3964656458189078,131.18931659958724,1.3472464666295005,41.69159639762266,8823798.58056097
6.299999999999994,3.530829215371462,135.42835716324777,1.3436356955255464,42.39040563660535,8819481.79288412
6.399999999999993,3.6648357400879976,139.73736271170463,1.3400652471653536,43.0900554845688,8815164.997176232
6.499999999999993,3.798513509623808,144.11641762910867,1.3367776953581019,43.790549174040464,8810848.186602103
6.5999999999999925,3.9319143799508947,148.56560657792664,1.3340087032708703,44.49188948817988,8806531.35499545
6.699999999999992,4.065112883146304,153.08501443670238,1.3319850319540911,45.19407858775744,8802214.49706758
6.799999999999992,4.1982051499902795,157.67472622363974,1.3309226684397606,45.897117869373446,8797897.608577084
6.8999999999999915,4.331307658770791,162.33482700959846,1.3310250878051129,46.6010078595871,8793580.686456047
6.999999999999991,4.464555824984716,167.06540182441103,1.332481662139252,47.3057481481257,8789263.72888999
7.099999999999991,4.598102450835056,171.8665355605033,1.3354662585034067,48.011337360922944,8784946.735350497
7.19999999999999,4.732114368470702,176.73831273553358,1.340119176356462,48.71777175030284,8780629.706581183
7.29999999999999,4.866772121101402,181.68081750698195,1.3465775263070012,49.425047714483625,8776312.64453598
7.39999999999999,5.0022682401931275,186.69413361769764,1.354961190917254,50.133161107156845,8771995.552282
7.499999999999989,5.138805276886302,191.77834432808666,1.3653703669317432,50.842107103890235,8767678.433868445
7.599999999999989,5.276647178419491,196.93353096352718,1.378419015331894,51.55186635440507,8763361.294163922
7.699999999999989,5.416022588813693,202.1597753967006,1.3937541039420118,52.26244433173443,8759044.13870877
7.799999999999988,5.5571640988148925,207.4571589061967,1.4114151000119926,52.97383509496076,8754726.97342528
7.899999999999988,5.70030633656268,212.82576217963097,1.4314223774778756,53.6860327343428,8750409.80439597
7.999999999999988,5.8454793552860185,218.26567079149396,1.4517301872333779,54.3990861186299,8746092.63767124
8.099999999999987,5.99291241849849,223.7769644255836,1.4743306321247083,55.11293634089644,8741775.479191184
8.199999999999987,6.14283278982831,229.3597222543613,1.499203713298198,55.827578287776994,8737458.334655816
8.299999999999986,6.295462949777715,235.01402302435565,1.5263015994940463,56.54300769994365,8733141.209210997
8.399999999999986,6.451018753015081,240.73994514114057,1.5555580323736602,57.25922116784925,8728824.107318731
8.499999999999986,6.60970769144262,246.5375667662355,1.5868893842753882,57.97621625094938,8724507.032627778
8.599999999999985,6.7717272680144704,252.4069659231282,1.620195765718503,58.69399156892719,8720189.987874987
8.699999999999985,6.93726349360549,258.34822060919475,1.6553622559101993,59.412546860665685,8715872.974820122
8.799999999999985,7.106489539374133,264.36140967918436,1.692260457686427,60.13189069989597,8711555.994215133
8.899999999999984,7.279564537134806,270.4466138630028,1.7307499776067286,60.85204183818446,8707239.045807544
8.999999999999984,7.4566324623112905,276.60391432196144,1.7706792517648522,61.57300458958643,8702922.128376504
9.099999999999984,7.637821218585112,282.8333927535365,1.8118875627382156,62.294784315750455,8698605.239799025
9.199999999999983,7.823241885836476,289.1351314861625,1.8542066725136286,63.017387326259794,8694288.377142906
9.299999999999983,8.012988134729094,295.5092135616592,1.8974624889261735,63.740820754966876,8689971.536782093
9.399999999999983,8.207135809782843,301.9557228033318,1.941476750537498,64.46509241672653,8685654.714529622
9.499999999999982,8.405742681232102,308.47474386827497,1.9860687144925904,65.1902106494318,8681337.905782934
9.599999999999982,8.608848364452179,315.0663622829297,2.031056832200761,65.9161841465472,8677021.105676113
9.699999999999982,8.81647440426434,321.7306644614734,2.0762603981216206,66.64302178543718,8672704.309233638
9.799999999999981,9.028624520013068,328.4677377071441,2.121501157487282,67.37073245670713,8668387.5115204
9.89999999999998,9.245285005958063,335.2776701970961,2.1666048594499463,68.09932489951969,8664070.707783123
9.99999999999998,9.466425280248234,342.16055095184,2.211402742901707,68.82880754743887,8659753.89357886
10.09999999999998,9.691998574554502,349.1164697907207,2.25573294306267,69.55918838880726,8655437.064886887
10.19999999999998,9.921942755341133,356.1455172752211,2.2994418078663075,70.29047484500377,8651120.21820105
10.29999999999998,10.15618126675901,363.24778464214,2.342385114178756,71.02267366918926,8646803.350600522
10.399999999999979,10.394624184255315,370.4233637288753,2.3844291749630484,71.75579086735276,8642486.459797662
10.499999999999979,10.637169367218407,377.67234689314074,2.4254518296309184,72.4898316426546,8638169.544162672
10.599999999999978,10.883703698318849,384.99482692946594,2.4653433110044145,73.22480036325183,8633852.60272549
10.699999999999978,11.134104396671587,392.39089698476755,2.5040069835273893,73.96070055301585,8629535.635156164
10.799999999999978,11.388240391532847,399.8606504751512,2.5413599486125964,74.69753490383641,8625218.641725658
10.899999999999977,11.645973742960145,407.4041810059085,2.5773335142729716,75.4353053075733,8620901.62324964
10.999999999999977,11.90716109570561,415.021582296427,2.6118735274546645,76.17401290518488,8616584.581018263
11.099999999999977,12.171655152580923,422.71294811144156,2.6449405687531247,76.91365815014514,8612267.516715273
11.199999999999976,12.439306153624985,430.4783721997383,2.6765100104406128,77.6542408829676,8607950.432330057
11.299999999999976,12.709963347620228,438.31794824108727,2.706571939952429,78.39576041348933,8603633.330066219
11.399999999999975,12.983476442836093,446.23176980184036,2.7351309521586566,79.13821560753101,8599316.212250274
11.499999999999975,13.259697024323838,454.2199302993038,2.762205814877452,79.8816049746349,8594999.081243832
11.599999999999975,13.538479925639288,462.2825229746821,2.7878290131545076,80.6259267537823,8590681.939362321
11.699999999999974,13.819684543522454,470.4196408741114,2.81204617883165,81.37117899429309,8586364.788802937
11.799999999999974,14.10317608480716,478.63137683706105,2.83491541284705,82.11735962949638,8582047.631583977
11.899999999999974,14.388826735661393,486.9178234911825,2.8565065085423376,82.86446654121475,8577730.469497217
11.999999999999973,14.676516744160562,495.2790732525431,2.8769000849916946,83.6124976136061,8573413.304074386
12.099999999999973,14.966135408161481,503.7152183300866,2.896186640009198,84.36145077543466,8569096.136568222
12.199999999999973,15.25758196146442,512.2263507331244,2.9144655330293827,85.11132403037772,8564778.967948003
12.299999999999972,15.550766352313342,520.8125622806738,2.9318439084892316,85.86211547549411,8560461.79890891
12.399999999999972,15.84560990937993,529.4739446115207,2.9484355706658665,86.61382330846912,8556144.629894046
12.499999999999972,16.14204589149421,538.2105891939896,2.964359821142812,87.36644582468867,8551827.461127548
12.599999999999971,16.440019918513137,547.0225873345466,2.979740270189263,88.11998140557075,8547510.292656805
12.69999999999997,16.73949028184744,555.9100301845349,2.994703633343047,88.87442849988265,8543193.12440159
12.79999999999997,17.040428134286586,564.8730087445339,3.009378524391446,89.6297855999896,8538875.956207665
12.89999999999997,17.342817559861402,573.911613866045,3.023894255748146,90.38605121511074,8534558.787902405
12.99999999999997,17.64665552555475,583.0259362504148,3.038379656933464,91.14322384369888,8530241.619349953
13.09999999999997,17.95195171770309,592.2160664451163,3.0529619214834125,91.90130194701477,8525924.45050353
13.199999999999969,18.258728266917746,601.4820948377002,3.0677654921465556,92.66028392583897,8521607.281452755
13.299999999999969,18.567019366285937,610.8241116479064,3.0829109936818946,93.42016810206282,8517290.112464024
13.399999999999968,18.876870788481202,620.24220691857,3.0985142219526494,94.18095270663528,8512972.944012387
13.499999999999968,19.188339308213852,629.7364705060727,3.11468519732651,94.94263587502644,8508655.77680371
13.599999999999968,19.50149203717886,639.3069920711741,3.131527289650067,95.7052156510149,8504338.611786287
13.699999999999967,19.816405679305987,648.9538610710972,3.149136421271282,96.46868999923034,8500021.450151552
13.799999999999967,20.13316571468067,658.677166753747,3.1676003537468027,97.23305682649796,8495704.293323878
13.899999999999967,20.451865520980576,668.4769981549124,3.186998062999075,97.99831401165403,8491387.14293995
13.999999999999966,20.772605441659547,678.3534440992269,3.2073992067897263,98.76445944314415,8487070.000818469
14.099999999999966,21.095491810405484,688.3065932055661,3.2288636874593557,99.53149106339168,8482752.868921395
14.199999999999966,21.420635941601308,698.3365338974304,3.251441311958249,100.29940691864297,8478435.749308115
14.299999999999965,21.74815309662794,708.4433544187073,3.2751715502663337,101.06820521276815,8474118.644084217
14.399999999999965,22.078161435866203,718.62714285504,3.300083392382602,101.837884363328,8469801.555346677
14.499999999999964,22.410780966182468,728.8879871608513,3.3261953031626486,102.60844305811288,8465484.485127363
14.599999999999964,22.74613249352308,739.2259751918833,3.35351527340613,103.379880310321,8461167.435336776
14.699999999999964,23.08433658999826,749.6411947429403,3.3820409647517597,104.1521955105699,8456850.407709904
14.799999999999963,23.425512584511583,760.1337335903428,3.4117599451332365,104.92538847402456,8452533.40375596
14.899999999999963,23.7697775855908,770.70367953845,3.44265001079214,105.69945948107214,8448216.42471359
14.999999999999963,24.117245544604756,781.3511204694672,3.4746795901395937,106.47440931017182,8443899.471512934
15.099999999999962,24.468026367016044,792.0761443956421,3.507808224112863,107.25023926174867,8439582.54474566
15.199999999999962,24.822225078725126,802.8788395128696,3.541987117090814,108.02695117227489,8435265.644643804
15.299999999999962,25.17994105391686,813.7592942546675,3.577159751917354,108.80454741797844,8430948.771067956
15.399999999999961,25.541267310130635,824.7175973454604,3.613262562137763,109.58303090792899,8426631.923504986
15.499999999999961,25.906289875548786,835.7538378521165,3.650225654181497,110.36240506656132,8422315.101075243
15.59999999999996,26.275087232741615,846.8681052327164,3.687973571928304,111.14267380599888,8417998.302548828
15.69999999999996,26.647729842328918,858.0604893815987,3.7264260958730184,111.92384148882259,8413681.526370278
15.79999999999996,27.02427974922474,869.3310806698173,3.7654990689581966,112.70591288218642,8409364.770690782
15.89999999999996,27.404790273331965,880.6799699802575,3.8051052410722774,113.48889310440144,8405048.033406813
15.99999999999996,27.789305785753236,892.1072487367865,3.845155124212719,114.27278756528995,8400731.31220394
16.09999999999996,28.17786157079191,903.613008926961,3.8855578503867654,115.05760190174577,8396414.604604451
16.19999999999996,28.570483773238372,915.1973431179633,3.926222024464606,115.8433419100229,8392097.908017363
16.29999999999996,28.967189429679152,926.8603444655946,3.9670565644077946,116.63001347631239,8387781.219789411
16.399999999999963,29.367986581835794,938.6021067163102,4.0079715215664296,117.41762250715641,8383464.537255586
16.499999999999964,29.7728744692426,950.4227242024294,4.048878874068053,118.20617486119235,8379147.857787954
16.599999999999966,30.181843797913128,962.3222918307915,4.089693286705311,118.99567628362108,8374831.178841527
16.699999999999967,30.594877081029498,974.3009050652574,4.130332831163683,119.78613234465908,8370514.497996174
16.79999999999997,31.011949047120535,986.3586599035642,4.170719660910355,120.57754838306792,8366197.812993695
16.89999999999997,31.433027110679085,998.4956528491308,4.210780635585497,121.36992945566583,8361881.121769405
16.99999999999997,31.85807189970836,1010.7119808784828,4.2504478902927385,122.16328029351993,8357564.422477771
17.099999999999973,32.287037834285464,1023.0077414050132,4.28965934577107,122.9576052653039,8353247.713511859
17.199999999999974,32.71987374988948,1035.3830322398221,4.328359156040165,123.75290834808972,8348930.993516564
17.299999999999976,33.156523558963436,1047.8379515503855,4.366498090739584,124.54919310563301,8344614.261395763
17.399999999999977,33.59692694396581,1060.372597817787,4.404033850023749,125.34646267401409,8340297.516313751
17.49999999999998,34.041020075018125,1072.9870697932188,4.440931310523103,126.14471975431837,8335980.757691444
17.59999999999998,34.4887363451713,1085.6814664544072,4.477162701531717,126.94396661188424,8331663.985197958
17.69999999999998,34.94000711629399,1098.4558869625591,4.512707711226965,127.74420508151823,8327347.1987383
17.799999999999983,35.3947624686302,1111.310430620357,4.547553523362069,128.54543657797873,8323030.398437943
17.899999999999984,35.852931947179385,1124.245196831453,4.581694785491851,129.34766211096164,8318713.584625093
17.999999999999986,36.31444529821842,1137.2602850618316,4.615133510390391,130.15088230378564,8314396.757811483
18.099999999999987,36.779233189507586,1150.3557948033285,4.647878912891608,130.9550974149689,8310079.918672464
18.19999999999999,37.24722790800009,1163.5318255395198,4.679947184925036,131.76030736191186,8305763.068027129
