t[s],x[m],y[m],vx[m/s],vy[m/s],mass[kg]
0.1,-0.00010367480035183175,1.5560712495743827,-0.0010367480035183175,0.5607124957438269,6937905.914261036
0.2,-0.0003112590194364539,1.668283069431239,-0.0020758421908462213,1.122118198568562,6934787.959961174
0.30000000000000004,-0.0006226549407185125,1.83670489213586,-0.0031139592128205853,1.684218227046209,6931670.005671499
0.4,-0.0010374412098716436,2.0614062622922953,-0.004147862691531312,2.247013701564354,6928552.051391693
0.5,-0.0015548709643192584,2.342456836740969,-0.0051742975444761495,2.810505744486735,6925434.097121432
0.6,-0.0021738699962151214,2.6799263847537724,-0.006189990318958629,3.374695480128035,6922316.142860388
0.7,-0.0028930349628313364,3.0738847882265756,-0.0071916496661621485,3.939584034728033,6919198.188608225
0.7999999999999999,-0.003710631644679735,3.52440204186911,-0.008175966818483987,4.505172536425348,6916080.234364603
0.8999999999999999,-0.004624593251684007,4.031548253392192,-0.00913961607004272,5.071462115230809,6912962.280129175
0.9999999999999999,-0.005632518777711605,4.595393643692238,-0.010079255260275978,5.6384539030004595,6909844.325901591
1.0999999999999999,-0.006731671403766036,5.216008547033058,-0.010991526260544308,6.206149033408208,6906726.371681496
1.2,-0.007918976950131325,5.893463411224873,-0.011873055463652901,6.7745486419181535,6903608.417468528
1.3,-0.009191022377752074,6.627828797800533,-0.01272045427620749,7.3436538657566,6900490.463262324
1.4000000000000001,-0.010544054339123655,7.41917538218891,-0.013530319613715805,7.913465843883764,6897372.509062516
1.5000000000000002,-0.011973977778958471,8.267573953885432,-0.014299234398348152,8.483985716965213,6894254.554868729
1.6000000000000003,-0.013476354584885202,9.173095416619736,-0.015023768059267315,9.055214627343046,6891136.600680589
1.7000000000000004,-0.015046402288429392,10.135810788520418,-0.015700477035441904,9.62715371900682,6888018.646497715
1.8000000000000005,-0.016678992816514387,11.155791202276845,-0.016325905280849973,10.199804137564271,6884900.692319727
1.9000000000000006,-0.018368651293713085,12.233107905298027,-0.016896584771986984,10.773167030211814,6881782.738146236
2.0000000000000004,-0.02010955489547156,13.367832259868514,-0.01740903601758476,11.347243545704872,6878664.783976857
2.1000000000000005,-0.021895531752516746,14.560035743301317,-0.017859768570451868,11.922034834328029,6875546.829811198
2.2000000000000006,-0.023720059906651148,15.809789948087822,-0.018245281541344034,12.497542047865043,6872428.875648866
2.3000000000000007,-0.025576266318128364,17.117166582044696,-0.018562064114772146,13.073766339568731,6869310.921489469
2.400000000000001,-0.027456925924793978,18.48223746845777,-0.01880659606665614,13.650708864130749,6866192.967332609
2.500000000000001,-0.02935446075316715,19.9050745462229,-0.018975348283731708,14.228370777651277,6863075.013177889
2.600000000000001,-0.03126093908162873,21.385749869983762,-0.019064783284615822,14.806753237608648,6859957.059024912
2.700000000000001,-0.03316807465587253,22.924335610266656,-0.019071355742437936,15.385857402828929,6856839.104873278
2.800000000000001,-0.03506722595676692,24.520904053612202,-0.018991513008943955,15.965684433455465,6853721.150722588
2.9000000000000012,-0.03694939552076455,26.175527602704047,-0.01882169563997628,16.546235490918434,6850603.196572443
3.0000000000000013,-0.03880522931298816,27.888278776494488,-0.018558337922236098,17.1275117379044,6847485.24242244
3.1000000000000014,-0.04062501615311146,29.65923021032708,-0.01819786840123303,17.709514338325913,6844367.288272182
3.2000000000000015,-0.042398687194144045,31.4884546560562,-0.017736710410325818,18.292244457291165,6841249.33412127
3.3000000000000016,-0.04411581545421999,33.37602498216357,-0.01717128260075946,18.87570326107371,6838131.379969304
3.4000000000000017,-0.04576561540148,35.3220141738718,-0.016497999472600045,19.4598919170823,6835013.425815889
3.5000000000000018,-0.04733694259212734,37.32649533325488,-0.015713271906473408,20.04481159383082,6831895.471660627
3.600000000000002,-0.048818293361728306,39.38954167934572,-0.014813507696009672,20.63046346090837,6828777.517503125
3.700000000000002,-0.050197804569817886,41.51122654824067,-0.013795112080895835,21.216848688949522,6825659.5633429885
3.800000000000002,-0.05146325339786194,43.69162339320114,-0.01265448828044053,21.80396844960472,6822541.609179828
3.900000000000002,-0.05260205720061717,45.93080578475223,-0.0113880380275523,22.391823915510923,6819423.655013256
4.000000000000002,-0.053601273410920684,48.22884741077847,-0.009992162103035156,22.980416260262427,6816305.700842885
4.100000000000001,-0.05444759949793075,50.585822076616665,-0.008463260870100653,23.569746658381966,6813187.746668333
4.200000000000001,-0.05512737297883086,53.00180370514587,-0.006797734809001086,24.159816285292052,6810069.79248922
4.300000000000001,-0.05562657148399933,55.47686633687453,-0.004991985051684751,24.750626317286606,6806951.83830517
4.4,-0.05593081287563671,58.01108413002482,-0.0030424139163737927,25.342177931502885,6803833.884115808
4.5,-0.05602535541983341,60.604531360614196,-0.0009454254419669714,25.934472305893735,6800715.929920766
4.6,-0.055895098012050295,63.25728242253422,0.0013025740778311308,26.52751061920019,6797597.975719677
4.699999999999999,-0.05552458045597488,65.96941182762666,0.0037051755607541473,27.121294050924423,6794480.021512182
4.799999999999999,-0.05489798379570599,68.74099420575696,0.006265966602688853,27.715823781303094,6791362.067297923
4.899999999999999,-0.05399913070120991,71.57210430488507,0.00898853094496086,28.311100991281073,6788244.113076549
4.999999999999998,-0.05281148590698088,74.46281699113364,0.011876447942290343,28.90712686248562,6785126.158847711
5.099999999999998,-0.05131815670382933,77.41320724885374,0.014933292031515484,29.503902577200957,6782008.204611069
5.1999999999999975,-0.04950189348371099,80.42335018068808,0.01816263220118339,30.10142931834335,6778890.250366284
5.299999999999997,-0.04734509033750024,83.49332100763174,0.021568031462107486,30.699708269436613,6775772.296113025
5.399999999999997,-0.04482978570560121,86.62319506909056,0.0251530463189903,31.298740614588155,6772654.341850969
5.4999999999999964,-0.04193766308128016,89.81304782293711,0.028921226243210498,31.8985275384655,6769536.387579794
5.599999999999996,-0.03865005176659288,93.06295484556445,0.03287611314687286,32.499070226273375,6766418.433299188
5.699999999999996,-0.03494792768077089,96.37299183193758,0.03702124085821993,33.1003698637313,6763300.479008842
5.799999999999995,-0.030811914220920403,99.74323459564276,0.04136013459850485,33.702427637051784,6760182.524708457
5.899999999999995,-0.026222283174878187,103.17375906893467,0.04589631046042214,34.30524473291908,6757064.570397739
5.999999999999995,-0.02115895568605849,106.66464130278152,0.050633274888196966,34.90882233846853,6753946.6160764005
6.099999999999994,-0.015601503270115606,110.21595746690818,0.05557452415942885,35.51316164126657,6750828.661744161
6.199999999999994,-0.00952914888323661,113.8277838498373,0.060723543868789955,36.11826382929128,6747710.707400748
6.299999999999994,-0.0029207680418691217,117.50019685892867,0.06608380841367488,36.724130090913675,6744592.753045895
6.399999999999993,0.004245110006320823,121.23327302041663,0.07165878048189944,37.33076161487958,6741474.798679345
6.499999999999993,0.011990301060475474,125.02708897944585,0.07745191054154651,37.938159590292216,6738356.844300848
6.5999999999999925,0.02033696469378101,128.88172150010539,0.08346663633305537,38.54632520659548,6735238.889910161
6.699999999999992,0.029307602930146275,132.79724746546117,0.08970638236365261,39.15525965355791,6732120.935507048
6.799999999999992,0.03892505887056823,136.7737438775869,0.09617455940421954,39.76496412125735,6729002.981091284
6.8999999999999915,0.04921251526943772,140.81128785759353,0.10287456398869492,40.37543980006638,6725885.02666265
6.999999999999991,0.06019349306104839,144.9099566456574,0.10980977791610669,40.986687880638485,6722767.0722209355
7.099999999999991,0.07189184983658135,149.06982760104688,0.11698356775532961,41.59870955389494,6719649.117765939
7.19999999999999,0.08433177827184773,153.29097820214812,0.12439928435266374,42.211506011012496,6716531.163297467
7.29999999999999,0.09753780450608072,157.5734860464893,0.13206026234232993,42.82507844341183,6713413.208815335
7.39999999999999,0.11153478647207822,161.917428850764,0.13996981965997493,43.43942804274678,6710295.254319369
7.499999999999989,0.12634791217800645,166.32288445085342,0.14813125705928226,44.05455600089439,6707177.299809399
7.599999999999989,0.14200269794118456,170.789930801848,0.15654785763178117,44.670463509945705,6704059.3452852685
7.699999999999989,0.1585249865741794,175.31864597806774,0.1652228863299485,45.2871517621975,6700941.390746828
7.799999999999988,0.1759409455235488,179.90910817308222,0.174159589493694,45.904621950144715,6697823.436193937
7.899999999999988,0.19427706496158134,184.5613956997296,0.1833611943803254,46.52287526647376,6694705.481626465
7.999999999999988,0.21356015583138935,189.27558699013525,0.19283090869808006,47.14191290405671,6691587.52704429
8.099999999999987,0.23381734784572134,194.0517605957299,0.20257192014331982,47.76173605594626,6688469.572447298
8.199999999999987,0.2550760874398689,198.88999518726706,0.21258739594147605,48.38234591537162,6685351.617835387
8.299999999999986,0.2773641356790526,203.7903695548406,0.22288048239183686,49.00374367573523,6682233.663208461
8.399999999999986,0.30070956612067923,208.75296260790162,0.23345430441626625,49.625930530610304,6679115.7085664375
8.499999999999986,0.3251407626318737,213.77785337527555,0.24431196511194472,50.248907673739325,6675997.753909239
8.599999999999985,0.3506864171626955,218.86512100517888,0.25545654530821815,50.87267629903335,6672879.7992368
8.699999999999985,0.3773755274754601,224.0148447652361,0.26689110312764586,51.497237600572234,6669761.844549063
8.799999999999985,0.4052373948305933,229.22710404249665,0.2786186735513316,52.1225927726057,6666643.889845979
8.899999999999984,0.43430162162945607,234.50197834345218,0.29064226798862797,52.748743009555334,6663525.935127513
8.999999999999984,0.46459810901458587,239.83954729405392,0.302964873851298,53.37568950601744,6660407.980393633
9.099999999999984,0.4961570544278077,245.2398906397306,0.31558945413221867,54.00343345676678,6657290.025644321
9.199999999999983,0.5290089491266791,250.70308824540672,0.328518946988713,54.63197605676124,6654172.0708795665
9.299999999999983,0.5631845756597385,256.22922009552144,0.3417562653305939,55.26131850114733,6651054.116099368
9.399999999999983,0.5987150053010386,261.81836629404813,0.355304296413002,55.89146198526662,6647936.161303733
9.499999999999982,0.6356315954444507,267.47060706451447,0.36916590143412126,56.522407704663074,6644818.206492678
9.599999999999982,0.6739659869582361,273.1860227500236,0.3833439151378534,57.154156855091195,6641700.251666232
9.699999999999982,0.7137501015003893,278.9646938132761,0.39784114542153187,57.78671063252516,6638582.296824428
9.799999999999981,0.7550161387952649,284.80670083659294,0.4126603729487556,58.42007023316876,6635464.341967312
9.89999999999998,0.7977965738720071,290.7121245219396,0.4278043507674225,59.05423685346626,6632346.387094935
9.99999999999998,0.8421241542653111,296.681045690951,0.4432758039330398,59.689211690114114,6629228.432207362
10.09999999999998,0.8880318971790501,302.71354528495834,0.4590774291373898,60.32499594007357,6626110.477304662
10.19999999999998,0.9355530866133129,308.8097043650168,0.4752118943426288,60.96159080058415,6622992.522386914
10.29999999999998,0.984721270455402,314.9696041119346,0.49168183842089097,61.59899746917793,6619874.567454207
10.399999999999979,1.0355702575353498,321.1933258263041,0.5084898707994784,62.23721714369479,6616756.612506637
10.499999999999979,1.0881341146465202,327.48095092853396,0.5256385711117046,62.8762510222984,6613638.65754431
10.599999999999978,1.1424471635318674,333.8325609588833,0.5431304888534706,63.51610030349309,6610520.702567338
10.699999999999978,1.1985439778364315,340.24823757749743,0.5609681430456411,64.15676618614161,6607402.747575843
10.799999999999978,1.256459380026661,346.7280625644458,0.579154021902295,64.79824986948363,6604284.792569953
10.899999999999977,1.316228438277153,353.2721178197613,0.5976905825049196,65.44055255315509,6601166.837549807
10.999999999999977,1.3778864633254146,359.88048536348214,0.6165802504826163,66.08367543720838,6598048.882515548
11.099999999999977,1.4414690052952535,366.55324733569546,0.635825419698389,66.72761972213333,6594930.927467329
11.199999999999976,1.5070118504894114,373.29048599658336,0.6554284519415793,67.37238660887887,6591812.972405312
11.299999999999976,1.5745510181520632,380.0922837264709,0.6753916766265173,68.01797729887564,6588695.017329661
11.399999999999975,1.6441227572018082,386.9587230258768,0.695717390497451,68.66439299405924,6585577.062240552
11.499999999999975,1.7157635429357903,393.8898865155662,0.7164078573398203,69.31163489689432,6582459.107138166
11.599999999999975,1.789510073705584,400.88585693660616,0.7374653076979374,69.95970421039928,6579341.152022691
11.699999999999974,1.8653992675654976,407.94671715042335,0.7588919385991362,70.60860213817186,6576223.1968943225
11.799999999999974,1.9434682588939427,415.07255013886487,0.7806899132844507,71.2583298844153,6573105.241753261
11.899999999999974,2.023754394988531,422.2634390042614,0.8028613609458837,71.90888865396533,6569987.286599713
11.999999999999973,2.1062952326355635,429.5194669694932,0.825408376470323,72.5602796523177,6566869.331433895
12.099999999999973,2.1911285346545797,436.84071737805886,0.8483330201901629,73.21250408565652,6563751.376256024
12.199999999999973,2.2782922664186485,444.2272736941472,0.8716373176406872,73.86556316088314,6560633.421066327
12.299999999999972,2.3678245923510755,451.67921950271176,0.8953232593242706,74.51945808564575,6557515.465865034
12.399999999999972,2.4597638723992206,459.19663850954873,0.9193928004814493,75.17419006836954,6554397.51065238
12.499999999999972,2.5541486584861124,466.7796145413775,0.9438478608689165,75.82976031828748,6551279.555428608
12.599999999999971,2.6510176909405616,474.4282315459247,0.9686903245444927,76.48617004547174,6548161.600193963
12.69999999999997,2.7504098949064737,482.1425735920112,0.993922039659123,77.14342046086557,6545043.644948698
12.79999999999997,2.8523643767320683,489.9227248696428,1.019544818255948,77.80151277631583,6541925.689693065
12.89999999999997,2.956920420339718,497.7687696901034,1.045560436076498,78.460448204606,6538807.734427326
12.99999999999997,3.0641174835771237,505.6807924860524,1.0719706323740585,79.12022795948968,6535689.779151745
13.09999999999997,3.1739951945505487,513.6588778116248,1.0987771097342482,79.78085325572467,6532571.823866589
13.199999999999969,3.2865933479408347,521.7031103425356,1.1259815339028583,80.44232530910737,6529453.86857213
13.299999999999969,3.401951901302934,529.8135748761864,1.1535855336209946,81.10464533650786,6526335.913268642
13.399999999999968,3.5201109713496903,537.9903563317769,1.1815907004675616,81.7678145559051,6523217.957956403
13.499999999999968,3.6411108302206037,546.2335397504191,1.2099985887091331,82.43183418642286,6520100.002635694
13.599999999999968,3.764991901736328,554.5432102952557,1.238810715157244,83.09670544836578,6516982.047306799
13.699999999999967,3.8917947576396426,562.9194532515812,1.2680285590331464,83.76242956325596,6513864.091970004
13.799999999999967,4.021560113823648,571.3623540269682,1.29765356184006,84.42900775386981,6510746.136625598
13.899999999999967,4.154328826547944,579.8719981513957,1.3276871272429582,85.09644124427523,6507628.181273871
13.999999999999966,4.290141888643536,588.4484712773826,1.358130620955919,85.76473125986912,6504510.225915115
14.099999999999966,4.429040425707243,597.0918591801242,1.3889853706370752,86.43387902741516,6501392.270549625
14.199999999999966,4.571065692286363,605.8022477576324,1.4202526657911956,87.10388577508178,6498274.315177695
14.299999999999965,4.716259068054356,614.5797230308804,1.4519337576799252,87.77475273248041,6495156.359799623
14.399999999999965,4.864662053978328,623.4243711439508,1.4840298592397143,88.44648113070396,6492038.404415704
14.499999999999964,5.016316268479073,632.3362783641874,1.5165421450074623,89.1190722023654,6488920.449026238
14.599999999999964,5.171263443584464,641.3155310823511,1.5494717510539024,89.79252718163657,6485802.493631523
14.699999999999964,5.329545421076939,650.3622158127798,1.5828197749247532,90.46684730428706,6482684.538231858
14.799999999999963,5.491204148635904,659.4764191935521,1.6165872755896555,91.14203380772324,6479566.582827541
14.899999999999963,5.656281675975796,668.6582279866549,1.6507752733989207,91.81808793102735,6476448.62741887
14.999999999999963,5.824820150980607,677.9077290781545,1.6853847500481078,92.49501091499664,6473330.672006143
15.099999999999962,5.9968618158356515,687.2250094783727,1.72041664855045,93.17280400218257,6470212.716589658
15.199999999999962,6.172449003157366,696.6101563220657,1.755871873217144,93.85146843692996,6467094.76116971
15.299999999999962,6.351624132121919,706.0632568686073,1.7917512896455248,94.53100546541619,6463976.805746595
15.399999999999961,6.534429704593432,715.5843985021763,1.8280557247151317,95.21141633569027,6460858.8503206065
15.499999999999961,6.7209083012526,725.1736687319475,1.864785966591687,95.89270229771196,6457740.894892035
15.59999999999996,6.911102577726499,734.8311551922866,1.9019427647389928,96.57486460339062,6454622.939461172
15.69999999999996,7.105055260720375,744.556945642949,1.9395268299387582,97.25790450662409,6451504.984028305
15.79999999999996,7.302809144152212,754.3511279692827,1.9775388343183682,97.94182326333735,6448387.02859372
15.89999999999996,7.504407085290872,764.2137901824349,2.0159794113865956,98.62662213152106,6445269.0731577
15.99999999999996,7.7098920008985985,774.1450204195619,2.0548491560772684,99.31230237126977,6442151.117720526
16.09999999999996,7.919306863378687,784.1449069440439,2.0941486248008916,99.99886524482005,6439033.162282474
16.19999999999996,8.13269469692911,794.2135381457027,2.133878335504231,100.6863120165883,6435915.206843821
16.29999999999996,8.350098573702896,804.3510025410236,2.174038767737855,101.37464395320826,6432797.251404838
16.399999999999963,8.57156160997606,814.5573887733805,2.2146303627316426,102.06386232356829,6429679.295965791
16.499999999999964,8.797126962323885,824.8327856132653,2.255653523478246,102.75396839884819,6426561.340526944
16.599999999999966,9.026837823806336,835.1772819585209,2.297108614824514,103.44496345255584,6423443.385088558
16.699999999999967,9.260737420163423,845.5909668345772,2.3389959635708677,104.1368487605633,6420325.42965089
16.79999999999997,9.498869006021286,856.0739293946915,2.381315858578622,104.82962560114255,6417207.47421419
16.89999999999997,9.741275861109811,866.6262589201916,2.424068550885248,105.52329525500087,6414089.518778706
16.99999999999997,9.988001286492567,877.2480448207232,2.4672542538275692,106.21785900531566,6410971.563344681
17.099999999999973,10.239088600809854,887.9393766345,2.5108731431728732,106.9133181377688,6407853.607912351
17.199999999999974,10.494581136535649,898.7003440285581,2.5549253572579405,107.60967394058055,6404735.652481952
17.299999999999976,10.754522236249246,909.5310367990124,2.5994109971359642,108.30692770454287,6401617.697053709
17.399999999999977,11.018955248922381,920.4315448713177,2.644330126731357,109.00508072305222,6398499.741627846
17.49999999999998,11.287923526222624,931.4019583005319,2.6896827730024215,109.70413429214167,6395381.78620458
17.59999999999998,11.56147041883381,942.4423672715832,2.735468926111872,110.40408971051258,6392263.830784122
17.69999999999998,11.83963927279433,953.5528620995398,2.7816885396051885,111.10494827956546,6389145.875366678
17.799999999999983,12.122473425854007,964.7335332298828,2.828341530596777,111.80671130343033,6386027.919952448
