time[s],x[m],y[m],vx[m/s],vy[m/s],theta[rad],theta_dot[rad/s],alpha[rad],mass[kg],mass_propellant[kg],gimbalangle[deg],nonnominalthrottle[0-1],u0,u1
0.1,1.277638584592315e-17,1.6105877614964477,1.277638584592315e-16,1.1058776149644771,1.5707963267948966,0.0,0.0,5518563.309723058,4253211.855548027,-0.0,1.0,-0.0,1.0
0.2,0.0003616271405998102,1.8318895356740448,0.003616271405997974,2.2130177417759707,1.5708107192113556,0.0001439241645938462,0.0016484815242654438,5515205.519742937,4249854.065567906,-0.26050906718040406,1.0,-0.03721558102577201,1.0
0.30000000000000004,0.0013926802932842368,2.164030591543516,0.010310531526844266,3.3214105586947085,1.5708518760971155,0.0004115688575959385,0.0031598022170167273,5511847.749886929,4246496.295711898,-0.4844808332039402,1.0,-0.06921154760056288,1.0
0.4,0.0031633138468040627,2.6071375064511386,0.017706335535198257,4.431069149076225,1.570922971720098,0.0007109562298267353,0.004122574733041118,5508489.987211778,4243138.533036747,-0.5424582927574642,1.0,-0.07749404182249488,1.0
0.5,0.0056980623029730245,3.161337277758862,0.02534748456168962,5.541997713077234,1.5710256353875482,0.00102663667450408,0.0048029856545643845,5505132.228610373,4239780.774435342,-0.572746075072098,1.0,-0.08182086786744257,1.0
0.6,0.008982849913359493,3.8267591680929325,0.03284787610386468,6.654218903340703,1.571160257164327,0.0013462177677867383,0.005300288756828531,5501774.4711636705,4236423.01698864,-0.581044029604134,1.0,-0.08300628994344772,1.0
0.7,0.012966940547565295,4.603533784021356,0.039840906342058,7.7677461592842345,1.5713260717950315,0.0016581463070454074,0.005658717570566463,5498416.71203327,4233065.257858239,-0.5689041637804505,1.0,-0.08127202339720721,1.0
0.7999999999999999,0.017565800656963587,5.491792003133593,0.04598860109398291,8.882582191122367,1.5715212659667075,0.0019519417167579208,0.005902283912016637,5495058.94881051,4229707.4946354795,-0.5382569625190661,1.0,-0.07689385178843801,1.0
0.8999999999999999,0.022664878551552373,6.491665412121928,0.050990778945887855,9.998734089883348,1.5717431112773381,0.00221845310630948,0.006046463747066078,5491701.17977739,4226349.7256023595,-0.49147183184758464,1.0,-0.07021026169251209,1.0
0.9999999999999999,0.028124115191232358,7.603286083315087,0.05459236639679984,11.116206711931586,1.57198811698071,0.0024500570337155727,0.006102811447131318,5488343.404042856,4222991.949867825,-0.4312545937526769,1.0,-0.061607799107525264,1.0
1.0999999999999999,0.03378299416073536,8.826786320260442,0.056588789695030006,12.23500236945356,1.5722521962779559,0.002640792972459773,0.006080992100483629,5484985.621555088,4219634.167380057,-0.36053693915455015,1.0,-0.05150527702207859,1.0
1.2,0.039465929668752224,10.162298391096428,0.05682935508016864,13.355120708359859,1.5725308398416833,0.002786435637275149,0.00598973569278316,5481627.83300607,4216276.378831039,-0.28236639379210376,1.0,-0.040338056256014825,1.0
1.3,0.044987792828287805,11.60995426536851,0.0552186315953558,14.476558742720812,1.5728192904421385,0.0028845060045536264,0.0058372930595342876,5478270.039655605,4212918.5854805745,-0.1998004254767636,1.0,-0.028542917925251942,1.0
1.4000000000000001,0.05015938403210084,13.169885365592833,0.051715912038130286,15.599311002243239,1.5731127129127471,0.0029342247060837254,0.005631642962331318,5474912.24310799,4209560.78893296,-0.11580789950795554,1.0,-0.01654398564399365,1.0
1.5000000000000002,0.05479267173179926,14.842222339915587,0.04633287699698426,16.72336974322754,1.573406354210052,0.0029364129730498284,0.005380567034839468,5471554.445075636,4206202.990900605,-0.033180597215410425,1.0,-0.004740085316487203,1.0
1.6000000000000003,0.058705633976984035,16.62709485733499,0.03912962245184775,17.848725174194033,1.57369568895346,0.002893347434077386,0.005091650928914504,5468196.647160658,4202845.192985627,0.045542980122056965,1.0,0.006506140017436709,1.0
1.7000000000000004,0.06172655687878972,18.524631423142786,0.03020922901805691,18.975365658077987,1.5739765465293574,0.0028085757589750683,0.004772241940529609,5464838.85067884,4199487.396503809,0.11813980131592598,1.0,0.01687711447370371,1.0
1.8000000000000005,0.06369765037168805,20.534952139060902,0.019710934928983216,20.103207159181164,1.5742452160019844,0.002686694726269838,0.004429375975020244,5461481.056541663,4196129.602366632,0.18274925103941322,1.0,0.02610703586277332,1.0
1.9000000000000006,0.06447790843289143,22.658169747226314,0.00780258061203388,21.23217608165413,1.5744985277472057,0.0025331174522120145,0.0040696894391594185,5458123.265202662,4192771.811027631,0.2379033493478265,1.0,0.033986192763975215,1.0
2.0000000000000004,0.06394511108598837,24.894409466052632,-0.005327973469030647,22.362397188263202,1.5747339107613556,0.002353830141502244,0.00369932805304507,5454765.476665577,4189414.022490546,0.2825415441467828,1.0,0.04036307773525469,1.0
2.1000000000000005,0.061996996896428826,27.243798798799702,-0.019481141895595397,23.4938933274707,1.5749494234912993,0.0021551272994360165,0.0033238966502819878,5451407.690544656,4186056.2363696247,0.31601114079233456,1.0,0.045144448684619226,1.0
2.2000000000000006,0.05855237087930089,29.706471383453014,-0.03444626017127936,24.62672584653311,1.5751437739779874,0.0019435048668786188,0.0029487132254490955,5448049.90616238,4182698.4519873494,0.3380514874284255,1.0,0.04829306963263221,1.0
2.3000000000000007,0.053556424241891484,32.28256294968848,-0.04995946637409407,25.760915662354716,1.5753163995171893,0.0017262553920192266,0.002580723811130392,5444692.122668964,4179340.668493933,0.3487816989382616,1.0,0.049825956991180226,1.0
2.400000000000001,0.046986753623037184,34.97220822451317,-0.06569670618854302,26.896452748246816,1.5754675457025238,0.0015114618533477358,0.0022286449313895225,5441334.3391751265,4175982.8850000952,0.3487766927625936,1.0,0.04982524182322765,1.0
2.500000000000001,0.03883848939902101,37.77554257311126,-0.08148264224016173,28.033343485980946,1.5755979843373313,0.0013043863480755628,0.001895032693602472,5437976.554882157,4172625.1007071254,0.3391449156353521,1.0,0.048449273662193156,1.0
2.600000000000001,0.029121167861607414,40.692702700339346,-0.09717321537413595,29.171601272280892,1.5757089239230182,0.0011093958568672779,0.0015815199255670986,5434618.769155006,4169267.314979974,0.3211353898050686,1.0,0.045876484257866945,1.0
2.700000000000001,0.017859364946524764,43.72382361939195,-0.11261802915082651,30.31120919052606,1.57580198371494,0.0009305979192208304,0.0012902818504136884,5431260.981557087,4165909.527382055,0.29600118060192554,1.0,0.042285882943132215,1.0
2.800000000000001,0.005087763709091255,46.869042312455164,-0.12771601237433508,31.45218693063212,1.5758790725789926,0.0007708886405299821,0.0010221279739017763,5427903.191870807,4162551.7376957745,0.2651439614776096,1.0,0.03787770878251565,1.0
2.9000000000000012,-0.009148392364202706,50.12849449575888,-0.1423615607329396,32.59452183303717,1.5759423558175492,0.0006328323855612192,0.000778403805623773,5424545.400087117,4159193.945912085,0.23002374211158275,1.0,0.03286053458736896,1.0
3.0000000000000013,-0.02479830469521334,53.502310564054575,-0.1564991233101063,33.738160682956966,1.5759941309188539,0.0005177510130500234,0.0005591991231339578,5421187.606374659,4155836.1521996264,0.1921426275537079,1.0,0.027448946793386844,1.0
3.1000000000000014,-0.0418070110349598,56.990625118647316,-0.17008706339746457,34.883145545927384,1.576036765935781,0.00042635016927104665,0.0003645682054076449,5417829.811031725,4152478.3568566935,0.15297034480929173,1.0,0.02185290640132739,1.0
3.2000000000000015,-0.060116378633699036,60.593574815484246,-0.18309367598739237,36.0294969683693,1.5760726462426131,0.00035880306832019725,0.00019459154911194432,5414472.0144312065,4149120.560256175,0.11389831992119553,1.0,0.01627118856017079,1.0
3.3000000000000016,-0.07966969271854193,64.31129828059952,-0.195533140848429,37.17723465115277,1.576104064034742,0.00031417792128766265,4.829985148968596e-05,5411114.21696737,4145762.7627923395,0.07625449245643094,1.0,0.010893498922347276,1.0
3.4000000000000017,-0.10041300695390493,68.14393386857108,-0.20743314235362992,38.32635587971573,1.5761331660070301,0.0002910197228832868,-7.53924544012463e-05,5407756.419007065,4142404.9648320344,0.04121091886796657,1.0,0.005887274123995225,1.0
3.5000000000000018,-0.12230374559662584,72.09161700091781,-0.2189073864272091,39.47683132346731,1.5761617863108055,0.0002862030377533857,-0.00017969533504635926,5404398.620853417,4139047.1666783863,0.009760219891776115,1.0,0.0013943171273965878,1.0
3.600000000000002,-0.14529971650320211,76.15448115294008,-0.22995970906576288,40.62864152022268,1.5761916128790985,0.00029826568293152793,-0.0002646928085687783,5401040.822724859,4135689.368549829,-0.017415527763066683,1.0,-0.0024879325375809546,1.0
3.700000000000002,-0.16936676102141637,80.33265971253762,-0.2406704451821426,41.78178559597543,1.5762240471366498,0.0003243425755102952,-0.00033239210956637066,5397683.024749828,4132331.570574797,-0.03970183923586051,1.0,-0.005671691319408643,1.0
3.800000000000002,-0.19447993545521602,84.62628683909857,-0.25113174433799657,42.93627126560951,1.5762601744261309,0.00036127289481198454,-0.0003850273000418625,5394325.22697149,4128973.7727964604,-0.056631304481802286,1.0,-0.008090186354543184,1.0
3.900000000000002,-0.22062342173381966,89.03549742982082,-0.26143486278603634,44.092105907222546,1.5763007630853754,0.0004058865924456921,-0.0004247837765189999,5390967.429364204,4125615.9751891745,-0.06800994484647087,1.0,-0.009715706406638694,1.0
4.000000000000002,-0.2477910823564532,93.56042701786893,-0.2716766062263354,45.24929588048106,1.5763462578383467,0.0004549475297133379,-0.0004539931402758324,5387609.631856515,4122258.1776814857,-0.07383187763490272,1.0,-0.010547411090700388,1.0
4.100000000000001,-0.2759862029520378,98.20121151247179,-0.281951205955846,46.40784494602853,1.5763967912150143,0.0005053337666785706,-0.00047496824116266545,5384251.834356641,4118900.380181612,-0.07426939926835621,1.0,-0.010609914181193744,1.0
4.200000000000001,-0.30522099464246055,102.95798717864014,-0.2923479169042278,47.56775666168352,1.576452203139945,0.0005541192493072591,-0.0004899723686504487,5380894.036776723,4115542.582601694,-0.06965822661822471,1.0,-0.009951175231174957,1.0
4.300000000000001,-0.3355158262613267,107.8308905822693,-0.30294831618866125,48.729034036291615,1.5765120683584577,0.0005986521851231115,-0.0005011765260061196,5377536.239052611,4112184.784877582,-0.06047068410968599,1.0,-0.00863866915852657,1.0
4.4,-0.3668980021330212,112.82005851367589,-0.3138217587169453,49.89167931406585,1.5765757340277617,0.0006366566930430906,-0.0005105718649771607,5374178.441157203,4108826.9869821738,-0.047290853965242935,1.0,-0.006755836280748991,1.0
4.5,-0.39940038831349867,117.92562802328493,-0.3250238618047749,51.05569509609036,1.576642361592096,0.000666275643342505,-0.0005199439751246704,5370820.643106352,4105469.188931322,-0.03078293036054098,1.0,-0.004397561480077282,1.0
4.6,-0.43306002461436827,123.14773636328454,-0.3365963630086962,52.221083399996125,1.576710969789543,0.0006860819744732634,-0.000530870576161302,5367462.844957611,4102111.390782581,-0.011659815870838152,1.0,-0.0016656879815483074,1.0
4.699999999999999,-0.4679165685682365,128.48652096592596,-0.34856543953868196,53.3878460264142,1.576780480634619,0.0006951084507599942,-0.00054468208179137,5364105.046803001,4098753.592627972,0.009343236205656203,1.0,0.0013347480293794576,1.0
4.799999999999999,-0.5040107173355721,133.94211942960396,-0.36094148767335643,54.555984636780025,1.5768497652446574,0.0006928461003801988,-0.0005624484035271493,5360747.248757505,4095395.794582476,0.03149590468923387,1.0,0.004499414955604838,1.0
4.899999999999999,-0.5413826728790555,139.51466951586536,-0.3737195554348333,55.72550086261394,1.576917687746858,0.0006792250220061066,-0.0005849754103972593,5357389.450945349,4092037.9967703205,0.054099011731555666,1.0,0.007728430247365094,1.0
4.999999999999998,-0.5800707290971411,145.2043092420006,-0.3868805621808555,56.89639726135212,1.576983145418703,0.0006545767184497189,-0.0006128140121688386,5354031.653486159,4088680.19931113,0.07650663925097904,1.0,0.010929519892997007,1.0
5.099999999999998,-0.6201101822491774,151.01117674673452,-0.40039453152036236,58.06867504733938,1.5770451012865714,0.0006195586786882679,-0.0006463059621202305,5350673.85648274,4085322.402307711,0.09814393028571254,1.0,0.014020561469387505,1.0
5.1999999999999975,-0.6615327031566053,156.93541041507808,-0.4142252090742793,59.24233668343549,1.5771026067505962,0.0005750546402462392,-0.0006856532148615813,5347316.060011693,4081964.6058366653,0.1185172159863584,1.0,0.016931030855194058,1.0
5.299999999999997,-0.7043651681819169,162.97714890510434,-0.428324650253116,60.417384900262654,1.577154830735501,0.0005222398490488234,-0.0007308044648177692,5343958.264117343,4078606.809942316,0.1372149060551169,1.0,0.019602129436445268,1.0
5.399999999999997,-0.7486285286932204,169.1365313550678,-0.4426336051130357,61.593824499634586,1.5772010855082397,0.0004625477273890484,-0.0007814484957480161,5340600.468809614,4075249.014634586,0.1539214403240737,1.0,0.021988777189153385,1.0
5.4999999999999964,-0.7943372315061247,175.4136982029924,-0.4570870281290428,62.77166847924591,1.577240840384232,0.00039754875991965006,-0.000837098651292667,5337242.674066061,4071891.219891033,0.16843279184237467,1.0,0.024061827406053525,1.0
5.599999999999996,-0.8414983160219882,181.80878877721997,-0.4716108451586356,63.95090574227559,1.57727373741143,0.0003289702719808714,-0.0008970321774015577,5333884.879837037,4068533.425662009,0.18065368357214007,1.0,0.025807669081734295,1.0
5.699999999999996,-0.8901115139219881,188.3219573016549,-0.4861319789999984,65.13168524434907,1.5772995895450745,0.00025852133644627535,-0.0009604309989190707,5330527.086053369,4065175.6318783406,0.19060000072487704,1.0,0.027228571532125292,1.0
5.799999999999995,-0.9401693502098543,194.9533438209999,-0.500578362878662,66.31386519345004,1.5773183713892713,0.00018781844196572614,-0.0010264349552151497,5327169.2926350385,4061817.8384600105,0.19838728309918738,1.0,0.02834104044274105,1.0
5.899999999999995,-0.991656980160653,201.70309439708527,-0.5148762995079865,67.49750576085366,1.5773302174862087,0.00011846096937146514,-0.0010940402608461406,5323811.4994994495,4058460.0453244215,0.2042102516663646,1.0,0.029172893095194944,1.0
5.999999999999995,-1.0445518409369807,208.57135203747114,-0.5289486077632768,68.68257640385865,1.5773354185235866,5.2010373781705394e-05,-0.0011621067174738542,5320453.706569466,4055102.2523944383,0.20834245509643765,1.0,0.029763207870919663,1.0
6.099999999999994,-1.0988238555022447,215.55825868304075,-0.54272014565264,69.86906645569609,1.5773344076152982,-1.010908288341932e-05,-0.0012294371707879395,5317095.913780884,4051744.459605857,0.21113737802952312,1.0,0.03016248257564616,1.0
6.199999999999994,-1.1544391504654363,222.66395382609883,-0.5561529496319169,71.05695143058075,1.577327687121592,-6.720493706154749e-05,-0.0012953418080341448,5313738.121088261,4048386.666913234,0.2130131987366726,1.0,0.0304304569623818,1.0
6.299999999999994,-1.2113648765527703,229.88857519967394,-0.5692572608733399,72.24621373575094,1.577315738647437,-0.00011948474155289238,-0.0013598312398024335,5310380.328465467,4045028.87429044,0.2143679066458706,1.0,0.0306239866636958,1.0
6.399999999999993,-1.2695645280147896,237.23225812126924,-0.5819965146201935,73.43682921595313,1.5772990920274355,-0.00016646620001417389,-0.0014222001652164362,5307022.5359005425,4041671.0817255154,0.21548413972073022,1.0,0.03078344853153289,1.0
6.499999999999993,-1.3289978742659836,244.69513751873654,-0.5943334625119393,74.62879397467294,1.5772783186827708,-0.00020773344664819923,-0.0014817023715651967,5303664.743397022,4038313.2892219946,0.21666226357225016,1.0,0.03095175193889288,1.0
6.5999999999999925,-1.3896339913874327,252.27734979852065,-0.606361171214491,75.82212279784095,1.5772538091769555,-0.00024509505815382466,-0.001539500857585141,5300306.95097741,4034955.4968023836,0.21826191199035844,1.0,0.031180273141479774,1.0
6.699999999999992,-1.451428923377133,259.97903383649026,-0.6179493198970019,77.01684037969628,1.577226136042132,-0.00027673134823527027,-0.0015935796204300523,5296949.158670558,4031597.7044955306,0.22039324616057338,1.0,0.03148474945151048,1.0
6.799999999999992,-1.5143348063740367,267.80033103991804,-0.6290588299690371,78.21297203427787,1.577195896303194,-0.0003023973893788709,-0.0016431534558127847,5293591.366523155,4028239.9123481284,0.22337243608376808,1.0,0.03191034801196687,1.0
6.8999999999999915,-1.5783082429986042,275.7413850421497,-0.6397343662456739,79.41054002231657,1.5771635624139801,-0.0003233388921375688,-0.001688628590755803,5290233.574607983,4024882.120432956,0.22764171691983065,1.0,0.03252024527426152,1.0
6.999999999999991,-1.6433069738299881,283.80233989480445,-0.6499873083138389,80.60954852654724,1.577129532169143,-0.000340302448371924,-0.0017300232839345675,5286875.783012002,4021524.328836975,0.23338226845371016,1.0,0.033340324064815734,1.0
7.099999999999991,-1.7092890410307016,291.98334026621666,-0.6598206720071352,81.81000371412183,1.5770941409802075,-0.00035391188935639603,-0.001767291984744901,5283517.991833214,4018166.537658187,0.24067900582960003,1.0,0.03438271511851429,1.0
7.19999999999999,-1.776213037943045,300.28453112712873,-0.6692399691234338,83.01190860912081,1.5770576559986365,-0.00036484981570512285,-0.0018004715874708754,5280160.201183242,4014808.7470082147,0.24962169778405446,1.0,0.03566024254057921,1.0
7.29999999999999,-1.8440400734184876,308.7060561451261,-0.678270354754427,84.21525017997371,1.5770202430200313,-0.00037412978605403556,-0.0018299183009808928,5276802.41118792,4011450.9570128927,0.2602670515460279,1.0,0.037181007363718266,1.0
7.39999999999999,-1.9127369682155664,317.24805775816424,-0.6869689479707883,85.42001613038097,1.5769819158023841,-0.0003832721764725948,-0.0018564855451710383,5273444.6219846755,4008093.1678096484,0.2725919133548513,1.0,0.03894170190783589,1.0
7.499999999999989,-1.9822765375936182,325.9106775916803,-0.695395693780519,86.62619833516113,1.5769425367947352,-0.0003937900764895089,-0.001881162438067685,5270086.833714982,4004735.3795399545,0.286438062893712,1.0,0.040919723270530284,1.0
7.599999999999989,-2.052634824084866,334.694056300685,-0.7035828649124771,87.83378709004666,1.5769018705139082,-0.00040666280826928713,-0.001904674672125628,5266729.046515971,4001377.592340945,0.30153640926436887,1.0,0.04307662989490984,1.0
7.699999999999989,-2.1237887102437925,343.59833315875704,-0.7115388615892658,89.04276858072039,1.5768596308325609,-0.0004223968134736017,-0.0019275045168158922,5263371.260516594,3998019.8063415675,0.31760165141170793,1.0,0.045371664487386845,1.0
7.799999999999988,-2.1957145935319144,352.6236474995162,-0.7192588328812212,90.25314340759179,1.5768155097538337,-0.00044121078727300534,-0.0019499977196437701,5260013.475836976,3994662.02166195,0.33438515649819756,1.0,0.04776930807117107,1.0
7.899999999999988,-2.2683866407066295,361.77013813265955,-0.7267204717471528,91.46490633143318,1.5767692115321121,-0.000462982217214617,-0.001972295651682998,5256655.692587927,3991304.238412901,0.35167430368964764,1.0,0.05023918624137823,1.0
7.999999999999988,-2.3417779300361237,371.03794356104726,-0.7339128932949422,92.67805428387699,1.5767204384533013,-0.0004877307881098697,-0.0019946729813138386,5253297.910871796,3987946.4566967697,0.36930315598786706,1.0,0.05275759371255243,1.0
8.099999999999987,-2.4158592509354677,380.42720216408276,-0.7408132089934425,93.89258603035503,1.5766689143397783,-0.000515241135227389,-0.0020172562486013845,5249940.1307807015,3984588.6766056754,0.3871157675954228,1.0,0.05530225251363183,1.0
8.199999999999987,-2.4905982960076716,389.9380523920044,-0.7473904507220404,95.10850227921645,1.5766144011258922,-0.00054513213886064,-0.002040056634230236,5246582.352395721,3981230.898220694,0.40497488313684027,1.0,0.05785355473383432,1.0
