time[s],x[m],y[m],vx[m/s],vy[m/s],theta[rad],theta_dot[rad/s],alpha[rad],mass[kg],gimbalangle[deg],nonnominalthrottle[0-1],u0,u1
0.1,-0.00022824144210138814,0.06394298477326187,-0.0022824144210138813,0.6394298477326187,1.5707920492134362,-4.277581460352189e-05,-0.0035737148477599234,6939072.482520312,0.22063234816674918,1.0,0.22063234816674918,1.0
0.2,-0.0006851974492464755,0.19190554039225133,-0.004569560071450874,1.2796255561898948,1.5707834737039092,-8.575509527005887e-05,-0.003583851361231405,6935794.637621243,0.2216551461934893,1.0,0.22165514619348928,1.0
0.30000000000000004,-0.001370615822546189,0.3839643842004016,-0.006854183732997136,1.9205884380815021,1.5707705804528163,-0.00012893251092865673,-0.0035945247947475334,6932516.792773373,0.22265005854440165,1.0,0.22265005854440165,1.0
0.4,-0.002283501962053992,0.6401963650973497,-0.009128861395078026,2.5623198089694816,1.5707533504208562,-0.00017230031960414283,-0.0036056943216602466,6929238.947974849,0.22360469668037497,1.0,0.22360469668037497,1.0
0.5,-0.0034221145099112152,0.9606784637641621,-0.011386125478572231,3.2048209866681248,1.5707317653470945,-0.00021585073761780013,-0.0036173581934826338,6925961.103223773,0.22451885859679171,1.0,0.22451885859679171,1.0
0.6,-0.004783961134906562,1.3454877928767852,-0.013618466249953467,3.8480932911262307,1.570705807752674,-0.0002595759441991276,-0.003629520923057017,6922683.258518217,0.22539236626600034,1.0,0.22539236626600034,1.0
0.7,-0.006365794443187184,1.7947015973075982,-0.015818333082806217,4.492138044308129,1.570675460944367,-0.0003034680830728758,-0.00364218855829046,6919405.413856219,0.226225050033716,1.0,0.226225050033716,1.0
0.7999999999999999,-0.008163608016028327,2.308397254314891,-0.017978135728411435,5.136956570072931,1.5706407090179615,-0.00034751926405479644,-0.0036553674989527885,6916127.569235783,0.22701674865963445,1.0,0.22701674865963445,1.0
0.8999999999999999,-0.010172632575544356,2.8866522737201006,-0.020090245595160282,5.782550194052095,1.5706015368614958,-0.00039172156465579037,-0.0036690641008978453,6912849.724654884,0.2277673093563405,1.0,0.2277673093563405,1.0
0.9999999999999999,-0.012387332279199508,3.529544298072642,-0.02214699703655152,6.4289202435254165,1.5705579301583263,-0.00043606703169412047,-0.0036832845165815087,6909571.880111467,0.2284765878264176,1.0,0.2284765878264176,1.0
1.0999999999999999,-0.014801401143952527,4.237151102802194,-0.024140688647530186,7.076068047295522,1.5705098753900348,-0.0004805476829153727,-0.0036980346215698123,6906294.03560345,0.2291444482978393,1.0,0.2291444482978393,1.0
1.2,-0.01740775960084442,5.009550596358292,-0.02606358456891893,7.723994935560977,1.570457359839173,-0.0005251555086198355,-0.003713319976932139,6903016.191128724,0.22977076355759307,1.0,0.22977076355759304,1.0
1.3,-0.0201985511808137,5.846820820337102,-0.027907915799692772,8.372702239788103,1.570400371591843,-0.0005698824732969685,-0.003729145808255563,6899738.346685158,0.23035541498351877,1.0,0.23035541498351877,1.0
1.4000000000000001,-0.023165139332498415,6.7490399495952635,-0.02966588151684717,9.022191292581608,1.5703388995401164,-0.0006147205172666292,-0.0037455169930162846,6896460.502270595,0.23089829257437283,1.0,0.23089829257437283,1.0
1.5000000000000002,-0.026298104372759097,7.716286292350676,-0.03132965040260682,9.67246342755413,1.5702729333842838,-0.000659661558326726,-0.003762438052457684,6893182.65788286,0.23139929497810488,1.0,0.23139929497810488,1.0
1.6000000000000003,-0.02958724057063096,8.748638290270156,-0.032891361978718635,10.3235199791948,1.570202463634943,-0.0007046974934069637,-0.0037799131460496405,6889904.813519755,0.23185832951833715,1.0,0.23185832951833715,1.0
1.7000000000000004,-0.033021553365388284,9.84617451854385,-0.034343127947573264,10.975362282736928,1.5701274816149202,-0.0007498202002283417,-0.0037979460675050536,6886626.969179067,0.23227531221902464,1.0,0.23227531221902464,1.0
1.8000000000000005,-0.03658925671937803,11.008973685946343,-0.035677033539897464,11.627991674024935,1.5700479794610234,-0.0007950215389680696,-0.0038165402417920102,6883349.124858565,0.2326501678273159,1.0,0.2326501678273159,1.0
1.9000000000000006,-0.040277770606253496,12.237114634884403,-0.036885138868754684,12.2814094893806,1.5699639501256304,-0.0008402933539295633,-0.003835698722810754,6880071.2805560045,0.23298282983460605,1.0,0.23298282983460605,1.0
2.0000000000000004,-0.04407371863521295,13.530676341431281,-0.03795948028959454,12.935617065468774,1.5698753873781084,-0.0008856274752171744,-0.0038554241915391696,6876793.436269128,0.23327324049573364,1.0,0.23327324049573364,1.0
2.1000000000000005,-0.04796292581182148,14.889737915347547,-0.038892071766085314,13.590615739162656,1.5697822858060668,-0.0009310157204153181,-0.0038757189545277626,6873515.591995666,0.23352135084638298,1.0,0.23352135084638298,1.0
2.2000000000000006,-0.051930416435968,16.31437860008842,-0.03967490624146519,14.246406847408727,1.56968464081644,-0.0009764498962716473,-0.003896584942663761,6870237.74773334,0.23372712071860954,1.0,0.23372712071860954,1.0
2.3000000000000007,-0.055960412137482485,17.804677772797568,-0.040299957015144855,14.90299172709148,1.5695824486364018,-0.0010219218003839345,-0.003918023710155927,6866959.903479864,0.23389051875456027,1.0,0.23389051875456027,1.0
2.400000000000001,-0.060036330049911706,19.360714944287373,-0.04075917912429221,15.560371714898038,1.5694757063141127,-0.0010674232228903143,-0.0039400364337054405,6863682.0592329465,0.23401152241832615,1.0,0.23401152241832615,1.0
2.500000000000001,-0.06414078112292478,20.982569759005653,-0.041044510730130684,16.21854814718278,1.5693644117192962,-0.0011129459481625356,-0.003962623911841545,6860404.21499029,0.23409011800595583,1.0,0.23409011800595583,1.0
2.600000000000001,-0.06825556857379263,22.67032199498886,-0.041147874508678475,16.877522359832096,1.569248563543646,-0.001158481756501877,-0.003985786564405958,6857126.370749596,0.23412630065359516,1.0,0.23412630065359516,1.0
2.700000000000001,-0.07236168647835814,24.4240515638018,-0.041061179045655184,17.537295688129383,1.5691281613010621,-0.0012040224258373783,-0.004009524432173173,6853848.526508564,0.23412007434380283,1.0,0.23412007434380283,1.0
2.800000000000001,-0.07643931850188637,26.24383851046384,-0.04077632023528236,18.197869466620386,1.5690032053277194,-0.0012495597334260327,-0.004033837176601773,6850570.682264895,0.23407145190996045,1.0,0.23407145190996045,1.0
2.9000000000000012,-0.08046783677015658,28.12976301336174,-0.04028518268270202,18.859245028979,1.5688736967819643,-0.0012950854575545926,-0.004058724079709419,6847292.838016293,0.23398045503886106,1.0,0.23398045503886106,1.0
3.0000000000000013,-0.08442580088113001,30.081905384149106,-0.039579641109734394,19.521423707873684,1.5687396376440397,-0.0013405913792426294,-0.004084184044066852,6844014.993760466,0.2338471142713873,1.0,0.2338471142713873,1.0
3.1000000000000014,-0.08829095705750004,32.10034606763256,-0.038651561763700236,20.184406834834544,1.5686010307156453,-0.0013860692839465112,-0.004110215592910915,6840737.149495127,0.23367146900138244,1.0,0.23367146900138244,1.0
3.2000000000000015,-0.09204023744040235,34.18516564164468,-0.0374928038290232,20.84819574012125,1.5684578796193187,-0.0014315109632639178,-0.004136816870368598,6837459.305217998,0.23345356747256976,1.0,0.23345356747256976,1.0
3.3000000000000016,-0.09564975952453592,36.33644481690387,-0.03609522084133566,21.512791752591877,1.5683101887976554,-0.0014769082166385674,-0.004163985641797208,6834181.460926811,0.2331934667736796,1.0,0.23319346677367958,1.0
3.4000000000000017,-0.09909482573491628,38.55426443686115,-0.03445066210380362,22.1781961995728,1.5681579635123484,-0.0015222528530647785,-0.004191719294234231,6830903.6166193085,0.23289123283164728,1.0,0.23289123283164725,1.0
3.5000000000000018,-0.10234992314545512,40.83870547753413,-0.032550974105388396,22.844410406729732,1.5680012098430693,-0.0015675366927915223,-0.004220014836957775,6827625.7722932445,0.232546940402979,1.0,0.232546940402979,1.0
3.600000000000002,-0.1053887233395313,43.18984904732813,-0.030388001940761855,23.511435697940072,1.567839934686167,-0.001612751569025609,-0.0042488689021569215,6824347.92794639,0.2321606730632134,1.0,0.23216067306321336,1.0
3.700000000000002,-0.1081840824126902,45.60777638684479,-0.027953590731589047,24.17927339516661,1.5676741457532037,-0.001657889329633648,-0.004278277745711323,6821070.083576529,0.2317325231945342,1.0,0.2317325231945342,1.0
3.800000000000002,-0.11070804111757936,48.092568868678065,-0.025239587048891475,24.84792481833277,1.5675038515693194,-0.001702941838842427,-0.004308237248076718,6817792.239181468,0.2312625919714938,1.0,0.2312625919714938,1.0
3.900000000000002,-0.1129318251512001,50.64430799719801,-0.022237840336207338,25.517391285199444,1.567329061471426,-0.0017479009789373608,-0.004338742915281912,6814514.394759029,0.23075098934489593,1.0,0.23075098934489593,1.0
4.000000000000002,-0.11482584558452581,53.26307540832237,-0.018940204333257153,26.187674111243584,1.5671497856062295,-0.0017927586519586372,-0.004369789880029451,6811236.550307057,0.23019783402376395,1.0,0.23019783402376395,1.0
4.100000000000001,-0.11635969943450872,55.94895286927623,-0.015338538499828983,26.858774609538624,1.5669660349280905,-0.0018375067813947194,-0.004401372902905098,6807958.705823419,0.229603253455494,1.0,0.229603253455494,1.0
4.200000000000001,-0.11750217037846808,58.70202227833992,-0.011424709439593634,27.53069409063687,1.566777821196703,-0.0018821373138728438,-0.0044334863736934516,6804680.861306006,0.22896738380411893,1.0,0.22896738380411893,1.0
4.300000000000001,-0.11822122961082389,61.522365664585315,-0.0071905923235580415,28.203433862453952,1.5665851569746183,-0.0019266422208461473,-0.004466124312799469,6801403.016752737,0.22829036992670024,1.0,0.2282903699267002,1.0
4.4,-0.11848403684211077,64.41006518760086,-0.0026280723128687764,28.876995230155444,1.5663880556245908,-0.0019710135002770834,-0.004499280372775471,6798125.172161556,0.22757236534790046,1.0,0.22757236534790046,1.0
4.5,-0.11825694144017804,67.36520313720544,0.002270954019327401,29.551379496045787,1.5661865313067589,-0.002015243178316756,-0.004532947839954061,6794847.327530438,0.22681353223265474,1.0,0.22681353223265474,1.0
4.6,-0.11750548371345237,70.3878619331514,0.007514577267256606,30.2265879594596,1.565980598975661,-0.0020593233109798274,-0.00456711963618428,6791569.482857387,0.22601404135704806,1.0,0.22601404135704806,1.0
4.699999999999999,-0.11619439633611069,73.47812412481694,0.013110873773416902,30.90262191665548,1.5657702743770794,-0.002103245985814637,-0.004601788320675926,6788291.638140439,0.22517407207728443,1.0,0.22517407207728443,1.0
4.799999999999999,-0.11428760591498102,76.63607239088819,0.019067904211296657,31.57948266071242,1.565555574044723,-0.002147003323568181,-0.004636946091942873,6785013.793377664,0.2242938122968893,1.0,0.2242938122968893,1.0
4.899999999999999,-0.11174823469796061,79.86178953903108,0.02539371217020415,32.25717148142891,1.5653365152967382,-0.0021905874798455946,-0.0046725847898554385,6781735.948567167,0.22337345843200845,1.0,0.22337345843200845,1.0
4.999999999999998,-0.1085386024237103,83.15535850555356,0.03209632274250304,32.935689665224906,1.565113116232062,-0.0022339906467637853,-0.004708695897790659,6778458.103707088,0.22241321537492229,1.0,0.22241321537492229,1.0
5.099999999999998,-0.10462022831235582,86.51686235505822,0.03918374111354481,33.6150384950466,1.564885395726602,-0.002277205054598868,-0.00474527054489049,6775180.258795607,0.2214132964557371,1.0,0.2214132964557371,1.0
5.1999999999999975,-0.09995383319689617,89.94638428008565,0.04666395115459643,34.29521925027431,1.5646533734292594,-0.002320222973427041,-0.004782299508418797,6771902.41383094,0.22037392340222767,1.0,0.22037392340222767,1.0
5.299999999999997,-0.09449934179499096,93.44400760074899,0.054544914019052065,34.97623320663341,1.5644170697577835,-0.0023630367147585616,-0.004819773216221179,6768624.568811344,0.21929532629791648,1.0,0.21929532629791645,1.0
5.399999999999997,-0.08821588512076822,97.00981576435984,0.06283456674222736,35.65808163610848,1.564176505894467,-0.002405638633164461,-0.004857681749287134,6765346.723735119,0.21817774353830857,1.0,0.21817774353830857,1.0
5.4999999999999964,-0.08106180303626548,100.64389234504591,0.0715408208450274,36.34076580686072,1.5639317037816773,-0.0024480211278956575,-0.004896014844410824,6762068.878600607,0.21702142178536543,1.0,0.21702142178536543,1.0
5.599999999999996,-0.07299464694208709,104.34632104336079,0.08067156094178389,37.0242869831488,1.563682686117228,-0.0024901766444941215,-0.004934761896954409,6758791.033406192,0.21582661592019053,1.0,0.21582661592019053,1.0
5.699999999999996,-0.06397118260683156,108.1171856858861,0.0902346433525553,37.7086464252531,1.5634294763495884,-0.002532097676395729,-0.004973911963709554,6755513.188150306,0.21459358899391517,1.0,0.21459358899391517,1.0
5.799999999999995,-0.05394739313481311,111.95657022482646,0.1002378947201845,38.39384538940361,1.5631720986729363,-0.002573776766524481,-0.005013453765858157,6752235.342831424,0.21332261217683912,1.0,0.21332261217683912,1.0
5.899999999999995,-0.04287848207157245,115.8645587375976,0.11068911063240656,39.07988512771135,1.5629105780220482,-0.0026152065088777274,-0.005053375692032125,6748957.497448072,0.21201396470581246,1.0,0.21201396470581246,1.0
5.999999999999995,-0.030718876646642294,119.84123542640796,0.12159605424930157,39.76676688810364,1.5626449400670384,-0.0026563795501020554,-0.005093665801469527,6745679.65199882,0.21066793382985174,1.0,0.21066793382985172,1.0
6.099999999999994,-0.017422231153003932,123.88668461783426,0.13296645493638362,40.45449191426306,1.562375211207932,-0.002697288591059511,-0.005134311827269977,6742401.806482291,0.20928481475404945,1.0,0.20928481475404945,1.0
6.199999999999994,-0.0029414304626417045,128.0009907623913,0.14480800690362228,41.14306144557037,1.5621014185690936,-0.002737926388383799,-0.005175301179743519,6739123.960897155,0.20786491058171144,1.0,0.20786491058171144,1.0
6.299999999999994,0.012771406322426737,132.18423843409644,0.1571283678506844,41.83247671705135,1.561823589993491,-0.0027782857560261325,-0.0052166209498587515,6735846.115242137,0.2064085322548383,1.0,0.2064085322548383,1.0
6.399999999999993,0.02976492208429609,136.43651233002922,0.16993515761869352,42.52273895932767,1.5615417540368122,-0.0028183595667903936,-0.005258257912781783,6732568.26951601,0.2049159984928325,1.0,0.2049159984928325,1.0
6.499999999999993,0.048088517769175394,140.7578972698864,0.18323595684879304,43.21384939857184,1.5612559399614263,-0.002858140753857271,-0.0053001985315128675,6729290.423717603,0.20338763572957716,1.0,0.20338763572957716,1.0
6.5999999999999925,0.06779234833395625,145.14847819553304,0.19703830564780853,43.90580925646637,1.5609661777301966,-0.0028976223122970375,-0.005342428960614099,6726012.577845797,0.20182377804878576,1.0,0.20182377804878576,1.0
6.699999999999992,0.0889273185600859,149.60834017054975,0.21134970226129637,44.59861975016711,1.5606724980001399,-0.0029367973005706397,-0.005384935050030792,6722734.731899528,0.2002247671177077,1.0,0.2002247671177077,1.0
6.799999999999992,0.11154507873551281,154.13756837977684,0.22617760175426913,45.292282092270895,1.560374932115938,-0.002975658842018774,-0.005427702349004138,6719456.885877787,0.19859095211917982,1.0,0.19859095211917982,1.0
6.8999999999999915,0.1356980202055015,158.73624812885558,0.2415294146998869,45.98679749078753,1.560073512103304,-0.003014200126338615,-0.00547071611007488,6716179.039779621,0.19692268968201718,1.0,0.19692268968201718,1.0
6.999999999999991,0.16143927079314163,163.4044648437672,0.2574125058764011,46.682167149116204,1.5597682706621991,-0.003052414411047877,-0.005513961293176273,6712901.193604133,0.19522034380980155,1.0,0.19522034380980155,1.0
7.099999999999991,0.18882269009040556,168.14230407036982,0.27383419297263917,47.378392266026296,1.5594592411599055,-0.003090295022935885,-0.00555742256981695,6709623.347350484,0.1934842858080268,1.0,0.1934842858080268,1.0
7.19999999999999,0.21790286462063704,172.9498514739341,0.29080174530231473,48.07547403564276,1.5591464576239553,-0.0031278353595013348,-0.005601084327352401,6706345.50101789,0.1917148942096703,1.0,0.1917148942096703,1.0
7.29999999999999,0.24873510287338196,177.82719283867772,0.30832238252744926,48.77341364743601,1.5588299547349174,-0.003165028890376421,-0.00564493067334082,6703067.654605628,0.18991255469915472,1.0,0.1899125546991547,1.0
7.39999999999999,0.2813754302125007,182.77441406729935,0.32640327339118774,49.472212286216376,1.5585097678190436,-0.0032018691587370244,-0.0056889454399888795,6699789.808113031,0.1880776600347646,1.0,0.1880776600347646,1.0
7.499999999999989,0.31588058365852995,187.79160118051269,0.345051534460292,50.171871132133276,1.558185932840774,-0.00323834978269865,-0.005733112188680334,6696511.961539493,0.1862106099694906,1.0,0.1862106099694906,1.0
7.599999999999989,0.35230800654628924,192.87884031658058,0.36427422887759275,50.87239136067896,1.5578584863951042,-0.003274464456697781,-0.005777414214588772,6693234.114884464,0.1843118111703343,1.0,0.1843118111703343,1.0
7.699999999999989,0.39071584305875723,198.0362177308503,0.38407836512467963,51.573774142697026,1.5575274656998181,-0.003310206952858377,-0.0058218345513751935,6689956.268147456,0.18238167713610606,1.0,0.18238167713610606,1.0
7.799999999999988,0.4311629326382682,203.26381979528986,0.4044708957951097,52.276020644395615,1.557192908587584,-0.0033455711223431845,-0.0058663559759659645,6686678.421328042,0.18042062811369938,1.0,0.18042062811369938,1.0
7.899999999999988,0.4737088042761092,208.5617329980264,0.4254587163784097,52.9791320273654,1.5568548534979152,-0.0033805508966895737,-0.005910961013412042,6683400.574425849,0.17842909101288265,1.0,0.17842909101288265,1.0
7.999999999999988,0.518413670681624,213.93004394288664,0.44704866405514837,53.683109448602366,1.556513339469002,-0.003415140289129594,-0.0059556319418290204,6680122.72744057,0.17640749931963168,1.0,0.17640749931963168,1.0
8.099999999999987,0.5653384223319594,219.36883934894018,0.4692475165033538,54.38795406053533,1.5561684061294128,-0.0034493333958939584,-0.0060003507974151216,6676844.880371953,0.17435629300798053,1.0,0.17435629300798053,1.0
8.199999999999987,0.6145446214036142,224.87820605004603,0.4920619907165478,55.09366701105835,1.5558200936896631,-0.00348312439749966,-0.006045099379547336,6673567.0332198115,0.17227591845045967,1.0,0.17227591845045967,1.0
8.299999999999986,0.6660944955869811,230.4582309944028,0.5154987418336684,55.80024944356793,1.5554684429336605,-0.003516507560020936,-0.006089859255953289,6670289.1859840145,0.17016682832710117,1.0,0.17016682832710117,1.0
8.399999999999986,0.7200509317850959,236.10900124410333,0.5395643619811488,56.50770249700504,1.5551134952100263,-0.00354947723634329,-0.006134611767959486,6667011.338664493,0.16802948153306002,1.0,0.16802948153306002,1.0
8.499999999999986,0.7764774696978379,241.83060397469353,0.5642653791274199,57.216027305902074,1.5547552924232864,-0.003582027867400294,-0.006179338035811499,6663733.491261236,0.16586434308483683,1.0,0.16586434308483683,1.0
8.599999999999985,0.8354382952928483,247.62312647473698,0.5896082559501038,57.92522500043454,1.5543938770249472,-0.0036141539833928777,-0.0062240189640709875,6660455.643774295,0.16367188402515284,1.0,0.16367188402515281,1.0
8.699999999999985,0.8969982341644642,253.48665614538476,0.6155993887161595,58.635296706477675,1.554029292004448,-0.0036458502049908567,-0.006268635247079768,6657177.796203779,0.16145258132647305,1.0,0.16145258132647305,1.0
8.799999999999985,0.9612227447819885,259.42128049995154,0.642245106175243,59.34624354566789,1.5536615808799963,-0.0036771112445163926,-0.006313167374496498,6653899.948549856,0.15920691779321053,1.0,0.15920691779321053,1.0
