t[s],x[m],y[m],vx[m/s],vy[m/s],mass[kg]
0.1,-0.00011772322224231676,1.564874216105791,-0.0011772322224231676,0.6487421610579092,9087109.213130837
0.2,-0.0003532031391690059,1.6947001192555469,-0.0023547991692668916,1.29825903149756,9082792.045994567
0.30000000000000004,-0.0007058588310190896,1.8895553124174853,-0.003526556918500836,1.9485519316193831,9078474.878874544
0.4,-0.0011745031379423979,2.1495175307976067,-0.004686443069233084,2.599622183801212,9074157.711769687
0.5,-0.0017573393196249963,2.4746646420620753,-0.005828361816825984,3.251471112644685,9069840.5446789
0.6,-0.0024519578706215478,2.8650746465514,-0.006946185509965515,3.9041000448932435,9065523.377601068
0.7,-0.0032553335075965824,3.320825677486268,-0.008033756369750346,4.5575103093486815,9061206.210535064
0.7999999999999999,-0.00416382232956326,3.841996001164933,-0.00908488821966677,5.211703236786649,9056889.043479746
0.8999999999999999,-0.005173159152154839,4.428664017152055,-0.010093368225915797,5.866680159871227,9052571.876433957
0.9999999999999999,-0.00627845501691029,5.080908258458923,-0.011052958647554503,6.522442413068676,9048254.709396534
1.0999999999999999,-0.0074741948765014235,5.798807391714972,-0.011957398595911339,7.1789913325604875,9043937.5423663
1.2,-0.008754235456774248,6.582440217330556,-0.012800405802728235,7.836328256155845,9039620.375342073
1.3,-0.010111803296422469,7.431885669650918,-0.01357567839648221,8.494454523203615,9035303.208322665
1.4000000000000001,-0.011539492965055752,8.347222817101317,-0.01427689668633283,9.153371474503988,9030986.041306878
1.5000000000000002,-0.01302926546036986,9.328530862323307,-0.014897724953141074,9.813080452219893,9026668.874293514
1.6000000000000003,-0.01457244678506967,10.375889142302135,-0.015431813246998096,10.47358279978829,9022351.707281373
1.7000000000000004,-0.016159726704140207,11.489377128485286,-0.01587279919070537,11.134879861831498,9018034.540269254
1.8000000000000005,-0.017781157683004156,12.66907442689215,-0.01621430978863948,11.796972984068644,9013717.373255953
1.9000000000000006,-0.019426154007047624,13.915060778214887,-0.01644996324043469,12.459863513227365,9009400.206240272
2.0000000000000004,-0.02108349108293894,15.227416057910478,-0.016573370758913165,13.123552796955911,9005083.039221013
2.1000000000000005,-0.02274130492210805,16.606220276284052,-0.01657813839169109,13.78804218373574,9000765.872196987
2.2000000000000006,-0.024387091806696782,18.051553578563528,-0.016457868845887333,14.453333022794752,8996448.705167007
2.3000000000000007,-0.02600770813823244,19.563496244965656,-0.016206163315356573,15.119426664021265,8992131.538129896
2.400000000000001,-0.02758937046921956,21.142128690753545,-0.015816623309871217,15.786324457878889,8987814.371084485
2.500000000000001,-0.029117655717786635,22.78753146628578,-0.015282852485670753,16.454027755322375,8983497.204029618
2.600000000000001,-0.030577501565466493,24.499785257057244,-0.014598458476798578,17.122537907714616,8979180.036964146
2.700000000000001,-0.031953207038130926,26.27897088373173,-0.013757054726644331,17.79185626674486,8974862.869886938
2.800000000000001,-0.03322843327004172,28.12516930216656,-0.012752262319107923,18.461984184348314,8970545.702796876
2.9000000000000012,-0.034386204450921824,30.038461603429287,-0.011577711808801025,19.13292301262724,8966228.535692856
3.0000000000000013,-0.03540890895589205,32.01892901380665,-0.01022704504970226,19.804674103773625,8961911.368573792
3.1000000000000014,-0.03627830065806003,34.066652894806005,-0.008693917021679792,20.477238809993594,8957594.201438619
3.2000000000000015,-0.03697550042348967,36.18171474314937,-0.0069719976542963885,21.150618483433675,8953277.034286287
3.3000000000000016,-0.03748099778822074,38.36419619076027,-0.005054973647310724,21.82481447610899,8948959.867115771
3.4000000000000017,-0.03777465281694963,40.61417900474362,-0.0029365502872889205,22.499828139833525,8944642.699926067
3.5000000000000018,-0.03783569814292385,42.93174508735888,-0.0006104532597421323,23.17566082615259,8940325.532716192
3.600000000000002,-0.037642741188544104,45.31697647598663,0.0019295695437974527,23.852313886277543,8936008.365485191
3.700000000000002,-0.03717376656610973,47.769955343088924,0.004689746224343734,24.52978867102292,8931691.198232133
3.800000000000002,-0.03640613865808446,50.290763996163534,0.007676279080252724,25.208086530746073,8927374.030956112
3.900000000000002,-0.035316604376201384,52.87948487769248,0.01089534281883075,25.88720881528939,8923056.86365625
4.000000000000002,-0.033881296098667996,55.536200565085,0.014353082775333873,26.56715687392523,8918739.696331702
4.100000000000001,-0.03207573478467381,58.260993770615364,0.018055613139941907,27.247932055303647,8914422.528981647
4.200000000000001,-0.02987483326534542,61.053947341355666,0.022009015193283868,27.929535707403005,8910105.361605298
4.300000000000001,-0.027252899710236107,63.915144259104025,0.026219335551093126,28.611969177483598,8905788.194201898
4.4,-0.024183641268379488,66.84466764030846,0.030692584418566187,29.29523381204431,8901471.026770722
4.5,-0.020640167882879385,69.84260073598671,0.03543473385500101,29.979330956782448,8897153.859311081
4.6,-0.01659499627795122,72.90902693164239,0.04045171604928165,30.66426195655682,8892836.691822316
4.699999999999999,-0.012020054117273145,76.0440297471778,0.045749421606780735,31.35002815535413,8888519.524303805
4.799999999999999,-0.006886684332448537,79.24769283680368,0.051333697848246075,32.03663089625875,8884202.35675496
4.899999999999999,-0.0011656496203254043,82.52009998894627,0.057210347121231325,32.72407152142597,8879885.189175231
4.999999999999998,0.005172862892137905,85.86133512615216,0.06338512512463308,33.41235137205879,8875568.021564104
5.099999999999998,0.012159236816827006,89.27148230499098,0.069863739246891,34.10147178838827,8871250.853921099
5.1999999999999975,0.019824421508667377,92.75062571595674,0.07665184691840371,34.7914341096576,8866933.686245775
5.299999999999997,0.02819992690653838,96.29884968336772,0.08375505397871004,35.48223967410983,8862616.518537732
5.399999999999997,0.0373178182124366,99.91623866526565,0.09117891305898222,36.173889818979376,8858299.350796606
5.4999999999999964,0.047210710410474005,103.60287725331439,0.09892892198037403,36.866385880487364,8853982.183022073
5.599999999999996,0.05791176262735,107.35885017269847,0.10701052216875995,37.55972919384082,8849665.015213845
5.699999999999996,0.06945467233598998,111.18424228202204,0.11542909708639987,38.25392109323574,8845347.847371677
5.799999999999995,0.08187366940409595,115.07913857320845,0.12418997068105965,38.948962911864115,8841030.67949536
5.899999999999995,0.09520350998940699,119.04362417140095,0.13329840585311042,39.64485598192493,8836713.51158473
5.999999999999995,0.1094794702835197,123.07778433486486,0.14275960294112708,40.34160163463912,8832396.343639659
6.099999999999994,0.12473734010616973,127.18170445489172,0.15257869822650022,41.03920120026858,8828079.175660057
6.199999999999994,0.14101341635192688,131.35547005570564,0.16276076245757137,41.73765600813919,8823762.007645877
6.299999999999994,0.15834449629130642,135.59916679437242,0.17331079939379532,42.43696738666787,8819444.839597112
6.399999999999993,0.17676787072834926,139.9128804607118,0.18423374437042833,43.13713666339371,8815127.671513792
6.499999999999993,0.19632131701677266,144.29669697721312,0.19553446288423404,43.83816516501319,8810810.50339599
6.5999999999999925,0.2170430919368421,148.75070239895504,0.20721774920069433,44.54005421741937,8806493.335243816
6.699999999999992,0.2389719244351628,153.27498291352956,0.21928832498320702,45.24280514574522,8802176.16705742
6.799999999999992,0.262147008229637,157.86962484097066,0.23175083794474188,45.946419274410985,8797858.998836989
6.8999999999999915,0.2866079942818796,162.5347146336882,0.24460986052242617,46.6508979271755,8793541.830582751
6.999999999999991,0.3123949831394315,167.27033887640735,0.257869888575519,47.356242427191624,8789224.662294973
7.099999999999991,0.33954851715015455,172.0765842861139,0.27153534010723046,48.062454097065604,8784907.493973956
7.19999999999999,0.36810957255123766,176.95353771200593,0.28561055401083096,48.7695342589204,8780590.325620038
7.29999999999999,0.39811955143528716,181.9012861354522,0.3000997888404947,49.47748423446295,8776273.157233598
7.39999999999999,0.42962027359601784,186.91991666995773,0.31500722160730715,50.186305345055324,8771955.988815047
7.499999999999989,0.46265396825610433,192.0095165611367,0.33033694660086493,50.895998911789725,8767638.820364833
7.599999999999989,0.4972632656797929,197.17017318669343,0.3460929742368855,51.606566255567294,8763321.651883438
7.699999999999989,0.5334911886729166,202.4019740564115,0.36227922993123646,52.31800869718066,8759004.48337138
7.799999999999988,0.5713811439729954,207.7050068121515,0.3788995530007884,53.030327557400184,8754687.314829208
7.899999999999988,0.610976913532144,213.0793592278579,0.3959576955914855,53.74352415706387,8750370.146257505
7.999999999999988,0.652322645695546,218.525119209575,0.41345732163401994,54.45759981717079,8746052.977656882
8.099999999999987,0.6954628462782948,224.0423747954728,0.43140200582748833,55.172555858978086,8741735.809027987
8.199999999999987,0.7404423695434349,229.63121415588293,0.4497952326514006,55.88839360410134,8737418.640371492
8.299999999999986,0.7873064090840751,235.29172559334475,0.4686403954064018,56.60511437461833,8733101.471688101
8.399999999999986,0.8361004886124811,241.02399754266236,0.4879407952840593,57.32271949317608,8728784.302978545
8.499999999999986,0.8868704526590869,246.82811857097246,0.5076996404660584,58.04121028310104,8724467.134243583
8.599999999999985,0.939662457184401,252.7041773778237,0.527920045253141,58.760588068512426,8720149.965483997
8.699999999999985,0.9945229601068123,258.6522627952676,0.548605029224113,59.480854174438555,8715832.796700597
8.799999999999985,1.051498711749336,264.6724637879612,0.5697575164252361,60.20200992693607,8711515.627894213
8.899999999999984,1.110636745208367,270.7648694532824,0.5913803345903104,60.924056653212006,8707198.459065704
8.999999999999984,1.1719843666475414,276.92956902145727,0.6134762143917449,61.64699568174854,8702881.290215941
9.099999999999984,1.2355891455198318,283.1666518557003,0.6360477887229039,62.37082834243038,8698564.121345824
9.199999999999983,1.3014989047210326,289.47620745236776,0.659097592012007,63.095555966674596,8694246.952456266
9.299999999999983,1.3697617106778175,295.85832544112407,0.6826280595678499,63.82117988756288,8689929.783548199
9.399999999999983,1.4404258633735778,302.3130955851217,0.7066415269576041,64.54770143997605,8685612.614622572
9.499999999999982,1.5135398863152723,308.84060778119476,0.7311402294169437,65.27512196073069,8681295.445680352
9.599999999999982,1.589152516444546,315.44095206006654,0.7561263012927373,66.0034427887178,8676978.276722515
9.699999999999982,1.6673126939963991,322.11421858657087,0.7816017755185316,66.73266526504342,8672661.10775005
9.799999999999981,1.7480695523087035,328.860497659888,0.8075685831230444,67.46279073317088,8668343.938763963
9.89999999999998,1.8314724075858908,335.6798797137945,0.8340285527718735,68.19382053906482,8664026.769765262
9.99999999999998,1.9175707486201525,342.57245531692814,0.8609834103426177,68.92575603133666,8659709.600754969
10.09999999999998,2.0064142264735123,349.5383151730673,0.8884347785335954,69.65859856139147,8655392.43173411
10.19999999999998,2.098052644124146,356.5775501214249,0.9163841765063362,70.39234948357601,8651075.262703719
10.29999999999998,2.192535946080347,363.6902511369577,0.944833019562008,71.12701015532792,8646758.093664832
10.399999999999979,2.2899142079655403,370.87650933069034,0.973782618851936,71.8625819373259,8642440.924618492
10.499999999999979,2.3902376260777753,378.1364159500544,1.0032341811223522,72.59906619364057,8638123.755565738
10.599999999999978,2.4935565069271264,385.470062379243,1.0331888084935101,73.33646429188617,8633806.586507617
10.699999999999978,2.5999212567544547,392.8775401395803,1.0636474982732835,74.07477760337268,8629489.417445166
10.799999999999978,2.709382371034991,400.3589408899061,1.0946111428053598,74.8140075032583,8625172.248379426
10.899999999999977,2.8219904239702034,407.9143564269763,1.1260805293521243,75.55415537070223,8620855.079311434
10.999999999999977,2.9377960579714357,415.5438786858781,1.1580563400123245,76.29522258901753,8616537.910242219
11.099999999999977,3.056849973138795,423.2475997404605,1.190539151673591,77.03721054582383,8612220.741172804
11.199999999999976,3.1792029167387827,431.02561180378046,1.2235294359998772,77.78012063319991,8607903.572104204
11.299999999999976,3.3049056726841703,438.87800722856406,1.2570275594538738,78.52395424783595,8603586.403037429
11.399999999999975,3.4340090510196144,446.8048785076826,1.291033783354439,79.26871279118507,8599269.233973473
11.499999999999975,3.566563877416522,454.806318274644,1.3255482639690752,80.01439766961444,8594952.064913323
11.599999999999975,3.7026209826806693,462.8824193040996,1.3605710526414743,80.76101029455545,8590634.895857949
11.699999999999974,3.842231192276083,471.03327451236487,1.3961020959541353,81.50855208265291,8586317.72680831
11.799999999999974,3.9854453158686884,479.2589769579562,1.4321412359260552,82.25702445591321,8582000.557765346
11.899999999999974,4.132314136893236,487.5596198421413,1.4686882102454788,83.00642884185112,8577683.388729986
11.999999999999973,4.282888402147004,495.9352965095048,1.505742652537677,83.75676667363523,8573366.219703134
12.099999999999973,4.437218811413777,504.38610044852794,1.543304092667722,84.50803939023184,8569049.050685681
12.199999999999973,4.595356007121597,512.9121252921826,1.5813719570782077,85.26024843654714,8564731.881678497
12.299999999999972,4.757350564037783,521.5134648185393,1.6199455691618563,86.0133952635675,8560414.712682428
12.399999999999972,4.923252979004677,530.1902129513891,1.6590241496689395,86.76748132849778,8556097.543698298
12.499999999999972,5.09311366071962,538.9424637608788,1.6986068171494328,87.52250809489752,8551780.37472691
12.599999999999971,5.266982919562601,547.7703114641603,1.7386925884298077,88.27847703281485,8547463.205769043
12.69999999999997,5.444910957475036,556.673850426052,1.7792803791243583,89.03538961891796,8543146.036825448
12.79999999999997,5.626947857893131,565.6531751597145,1.8203690041809448,89.79324733662399,8538828.867896851
12.89999999999997,5.813143575739233,574.708380327337,1.8619571784610263,90.55205167622529,8534511.698983952
12.99999999999997,6.003547927474618,583.8395607408382,1.904043517353845,91.31180413501278,8530194.530087423
13.09999999999997,6.198210581217079,593.0468113625778,1.946626537424612,92.07250621739641,8525877.361207902
13.199999999999969,6.3971810469267325,602.3302273060801,1.9897046570965327,92.8341594350225,8521560.192346007
13.299999999999969,6.600508666663383,611.689903836769,2.0332761973665017,93.59676530688786,8517243.023502318
13.399999999999968,6.808242604918811,621.125936372714,2.077339382554283,94.3603253594506,8512925.854677388
13.499999999999968,7.020431839027309,630.6384204853878,2.1218923410849824,95.12484112673742,8508608.685871735
13.599999999999968,7.2371251496577695,640.2274519004325,2.166933106304604,95.89031415044742,8504291.517085848
13.699999999999967,7.458371111390618,649.8931264984377,2.212459617328485,96.65674598005212,8499974.348320182
13.799999999999967,7.684218083382855,659.6355403157269,2.25846971992237,97.42413817289172,8495657.179575158
13.899999999999967,7.914714200124444,669.4547895451536,2.3049611674158967,98.19249229426738,8491340.010851165
13.999999999999966,8.149907362289268,679.3509705369066,2.351931621648244,98.96180991752964,8487022.842148555
14.099999999999966,8.389845227683836,689.3241797993229,2.399378653945681,99.7320926241625,8482705.67346765
14.199999999999966,8.634575202296912,699.3745139997093,2.4472997461307555,100.50334200386347,8478388.50480873
14.299999999999965,8.884144431453196,709.5020699651712,2.495692291562835,101.2755596546191,8474071.336172044
14.399999999999965,9.138599791074167,719.7069446834489,2.5445535962097177,102.04874718277637,8469754.16755781
14.499999999999964,9.397987879049168,729.9892353037599,2.5938808797500155,102.82290620310927,8465436.9989662
14.599999999999964,9.662355006719768,740.349039137648,2.643671276705991,103.59803833888105,8461119.83039736
14.699999999999964,9.931747190480422,750.7864536598381,2.693921837606541,104.37414522190167,8456802.661851393
14.799999999999963,10.20621014349842,761.3015765090962,2.744629530179991,105.15122849258054,8452485.493328372
14.899999999999963,10.485789267556056,771.8945054890936,2.795791240576361,105.92928979997448,8448168.324828329
14.999999999999963,10.770529645017932,782.5653385692767,2.847403774618762,106.70833080183073,8443851.156351263
15.099999999999962,11.060476030926289,793.3141738857393,2.8994638590835566,107.4883531646251,8439533.987897137
15.199999999999962,11.355672845227181,804.1411097420987,2.9519681430089237,108.26935856359503,8435216.819465877
15.299999999999962,11.656164165130326,815.0462446103754,3.0049131990314453,109.05134868276768,8430899.651057376
15.399999999999961,11.96199371760536,826.0296771318737,3.0582955247503367,109.83432521498281,8426582.482671488
15.499999999999961,12.273204872017251,837.0915061180647,3.1121115441189175,110.61828986191055,8422265.314308038
15.59999999999996,12.589840632903543,848.231830551471,3.1663576088629273,111.403244334064,8417948.145966811
15.69999999999996,12.91194363289607,859.4507495865516,3.2210299999252703,112.18919035080647,8413630.97764756
15.79999999999996,13.239556125789747,870.748362550587,3.2761249289367673,112.97612964035359,8409313.809350004
15.89999999999996,13.572719979760995,882.124768944564,3.3316385397124884,113.76406393977001,8404996.64107383
15.99999999999996,13.911476670738319,893.5800684440601,3.387566909773226,114.5529949949608,8400679.472818691
16.09999999999996,14.255867275927486,905.1143609001258,3.443906051891665,115.34292456065747,8396362.304584209
16.19999999999996,14.605932467493766,916.7277463401657,3.5006519156627927,116.13385440039865,8392045.136369973
16.29999999999996,14.961712506403575,928.4203249688162,3.55780038909809,116.92578628650539,8387727.9681755435
16.399999999999963,15.323247236427878,940.1921971688213,3.6153473002430316,117.718722000051,8383410.800000448
16.499999999999964,15.69057607830962,952.0434635019038,3.6732884188174175,118.51266333082557,8379093.631844186
16.599999999999966,16.063738024097425,963.9742247096333,3.7316194578780526,119.30761207729503,8374776.46370623
16.699999999999967,16.442771631647755,975.9845817142888,3.7903360755032804,120.10357004655485,8370459.295586023
16.79999999999997,16.827715019297642,988.0746356197166,3.849433876498873,120.90053905427831,8366142.1274829805
16.89999999999997,17.21860586071012,1000.2444877121825,3.908908414124766,121.69852092465949,8361824.959396494
16.99999999999997,17.615481379894334,1012.4942394612176,3.9687551918421335,122.49751749035075,8357507.791325928
17.099999999999973,18.01837834640236,1024.823992520457,4.028969665080272,123.29753059239498,8353190.623270623
17.199999999999974,18.427333070704638,1037.2338487284724,4.089547243022775,124.09856208015255,8348873.4552299
17.299999999999976,18.842381399745882,1049.7239101095947,4.15048329041246,124.90061381122287,8344556.287203053
17.399999999999977,19.263558712683334,1062.2942788747307,4.211773129374508,125.70368765136081,8340239.119189357
17.49999999999998,19.690899916809062,1074.9450574221694,4.273412041257278,126.50778547438777,8335921.951188068
17.59999999999998,20.124439443658083,1087.676348338379,4.335395268490227,127.31290916209774,8331604.783198422
17.69999999999998,20.564211245303923,1100.4882543987949,4.3977180164584,128.11906060415805,8327287.615219638
17.799999999999983,21.010248790843214,1113.3808785685953,4.460375455392911,128.92624169800513,8322970.447250918
17.899999999999984,21.462585063070897,1126.354324003469,4.523362722276847,129.73445434873523,8318653.279291448
