time[s],x[m],y[m],vx[m/s],vy[m/s],theta[rad],theta_dot[rad/s],alpha[rad],mass[kg],gimbalangle[deg],nonnominalthrottle[0-1],u0,u1
0.1,-0.00012239608588749423,1.5688886012615615,-0.0012239608588749422,0.6888860126156158,1.570790192389397,-6.134405499600168e-05,-0.0017828573299742967,12974298.839443479,0.1185112637460732,1.0,0.2370225274921464,1.0
0.2,-0.0003667575581515406,1.7067471406851842,-0.0024436147226404633,1.3785853942362278,1.5707778954448222,-0.0001229694457501422,-0.0017909818018857493,12967982.984108409,0.11902839969775515,1.0,0.23805679939551028,1.0
0.30000000000000004,-0.0007315443153008943,1.9136570943809583,-0.0036478675714935365,2.06909953695774,1.570759411779506,-0.00018483665315960422,-0.0017999349798019093,12961667.128796468,0.11946897953906084,1.0,0.23893795907812168,1.0
0.4,-0.0012141141160415094,2.1897000778480815,-0.004825698007406151,2.7604298346712324,1.5707347205203575,-0.0002469125914859613,-0.0018097735457638375,12955351.27350436,0.11984550588470651,1.0,0.23969101176941301,1.0
0.5,-0.0018107172865543695,2.5349578461561273,-0.0059660317051286,3.4525776830804564,1.5707038041141947,-0.0003091640616249193,-0.0018205144348806268,12949035.41822875,0.12015780233442848,1.0,0.24031560466885696,1.0
0.6,-0.0025164919922631914,2.9495122941006335,-0.007057747057088217,4.145544479445061,1.5706666483380063,-0.0003715577618866631,-0.0018321665795486552,12942719.562966265,0.12040571332262659,1.0,0.24081142664525318,1.0
0.7,-0.00332546009310063,3.433445456332745,-0.008089681008374388,4.839331622321111,1.5706232423073307,-0.0004340603067546937,-0.0018447354725377174,12936403.707713509,0.12058911948836268,1.0,0.24117823897672536,1.0
0.7999999999999999,-0.004230523585173895,3.9868395074627347,-0.009050634920732655,5.533940511299901,1.5705735784827606,-0.000496638245702618,-0.001858224304832401,12930087.852467064,0.1207079377471077,1.0,0.2414158754942154,1.0
0.8999999999999999,-0.005223461631406864,4.60977676213731,-0.009929380462329685,6.229372546745752,1.5705176526745548,-0.0005592580820580952,-0.001872634343236701,12923771.997223498,0.12076212134182454,1.0,0.24152424268364908,1.0
0.9999999999999999,-0.006294928183409966,5.302339675090658,-0.010714665520031022,6.925629129533478,1.5704554640453643,-0.0006218862919031719,-0.0018879650807455128,12917456.141979378,0.12075165987347221,1.0,0.2415033197469444,1.0
1.0999999999999999,-0.0074344501965019506,6.06461084116928,-0.011395220130919842,7.622711660786219,1.5703870151110644,-0.0006844893430001836,-0.0019042143050489457,12911140.286731267,0.1206765793108653,1.0,0.2413531586217306,1.0
1.2,-0.00863042643947835,6.896672995330715,-0.011959762429763982,8.320621541614353,1.570312311739691,-0.000747033713732363,-0.0019213781336253621,12904824.431475742,0.12053694197983648,1.0,0.24107388395967297,1.0
1.3,-0.009870126900391112,7.798609012616331,-0.012397004609127623,9.019360172856157,1.5702313631484865,-0.0008094859120482984,-0.0019394510340591253,12898508.576209396,0.12033284653176063,1.0,0.24066569306352126,1.0
1.4000000000000001,-0.011139692789272364,8.770501908098426,-0.012695658888812512,9.718928954820958,1.570144181899047,-0.0008718124943993745,-0.001958425837573552,12892192.720928848,0.12006442789143032,1.0,0.2401288557828606,1.0
1.5000000000000002,-0.012424137138402295,9.81243483680197,-0.012844443491299314,10.419329287035444,1.5700507838905808,-0.0009339800846593141,-0.001978293749499427,12885876.865630746,0.11973185718430264,1.0,0.23946371436860528,1.0
1.6000000000000003,-0.013707346000387775,10.924491093601354,-0.012832088619854803,11.120562567993844,1.5699511883512791,-0.0009959553930149248,-0.0019990443585466977,12879561.01031178,0.11933534164312255,1.0,0.2386706832862451,1.0
1.7000000000000004,-0.014972080243984012,12.106754113092622,-0.012647342435962366,11.82263019491268,1.5698454178277974,-0.0010577052348172116,-0.002020665645858344,12873245.154968685,0.11887512449405352,1.0,0.23775024898810704,1.0
1.8000000000000005,-0.01619997794725683,13.3593074694417,-0.012278977032728185,12.525533563490766,1.5697334981728597,-0.00111919654938198,-0.0020431439943962015,12866929.299598247,0.11835148482228725,1.0,0.2367029696445745,1.0
1.9000000000000006,-0.017371557387348007,14.682234876209213,-0.011715794400911785,13.229274067675142,1.5696154585309867,-0.0011803964187291052,-0.002066464198967166,12860613.444197316,0.11776473741726141,1.0,0.23552947483452283,1.0
2.0000000000000004,-0.01846622062577091,16.075620186152573,-0.010946632384229013,13.933853099433607,1.5694913313223617,-0.001241272086249644,-0.002090609477079619,12854297.588762807,0.11711523259751509,1.0,0.23423046519503019,1.0
2.1000000000000005,-0.01946225768782857,17.539547391006025,-0.009960370620576604,14.639272048534533,1.5693611522248325,-0.0013017909752900357,-0.002115561480737105,12847981.733291708,0.11640335601535717,1.0,0.23280671203071435,1.0
2.2000000000000006,-0.020336851334411325,19.074100621239484,-0.008745936465827567,15.345532302334584,1.569224960154068,-0.0013619207076426409,-0.0021413003092443095,12841665.877781088,0.11562952844135796,1.0,0.2312590568827159,1.0
2.3000000000000007,-0.02106608242409664,20.679364145796985,-0.007292310896853153,16.052635245575008,1.569082797241875,-0.0014216291219319344,-0.0021678045230602017,12835350.022228101,0.11479420552887094,1.0,0.22958841105774186,1.0
2.400000000000001,-0.021624935863139898,22.355422371815695,-0.00558853439043258,16.760582260187096,1.5689347088126864,-0.0014808842918857198,-0.002195051158729422,12829034.166629998,0.11389787755865861,1.0,0.22779575511731723,1.0
2.500000000000001,-0.02198730714061164,24.10235984432644,-0.0036237127747174402,17.46937472510744,1.5687807433582384,-0.0015396545444807668,-0.002223015744898582,12822718.310984123,0.11294106916376304,1.0,0.22588213832752604,1.0
2.600000000000001,-0.022126009445604892,25.920261245936796,-0.001387023049932489,18.179014016103554,1.568620952510443,-0.0015979084779523898,-0.0022516723194301314,12816402.455287926,0.11192433903484716,1.0,0.22384867806969433,1.0
2.700000000000001,-0.02201278136310477,27.809211396497844,0.0011322808250011978,18.889501505610472,1.5684553910124777,-0.0016556149796574872,-0.002280993447609126,12810086.599538965,0.11084827960605316,1.0,0.22169655921210632,1.0
2.800000000000001,-0.02161829514478348,29.769295252755725,0.003944862183212897,19.60083856257883,1.5682841166880994,-0.0017127432437807047,-0.0023109502414422334,12803770.743734915,0.10971351672166905,1.0,0.2194270334433381,1.0
2.9000000000000012,-0.020912165550655143,31.80059790798922,0.00706129594128335,20.313026552334975,1.5681071904092119,-0.0017692627888734205,-0.002341512380041877,12797454.88787357,0.1085207092837183,1.0,0.2170414185674366,1.0
3.0000000000000013,-0.019862959257198987,33.903204591634584,0.010492062934561569,21.026066836453648,1.5679246760616905,-0.0018251434752153616,-0.002372648131087729,12791139.031952845,0.10727054888069411,1.0,0.21454109776138822,1.0
3.1000000000000014,-0.01843820482723465,36.077200668898946,0.014247544299643401,21.739960772643656,1.567736640509492,-0.0018803555219887658,-0.0024043243733540276,12784823.175970787,0.10596375939766363,1.0,0.21192751879532726,1.0
3.2000000000000015,-0.016604403236511165,38.32267164036365,0.018338015907234835,22.45470971464707,1.567543153557066,-0.001934869524255075,-0.0024365066202940433,12778507.319925575,0.10460109660793725,1.0,0.2092021932158745,1.0
3.3000000000000016,-0.014327038951650887,40.639703141578885,0.022773642848602785,23.17031501215232,1.5673442879100936,-0.0019886564697242748,-0.002469159044665048,12772191.463815523,0.10318334774653047,1.0,0.20636669549306094,1.0
3.4000000000000017,-0.011570591553772241,43.02838094265105,0.027564473978786447,23.88677801072164,1.5671401191345629,-0.0020416877553071254,-0.0025022445041820167,12765875.607639086,0.10171133106572908,1.0,0.20342266213145815,1.0
3.5000000000000018,-0.008298547901799971,45.48879094782437,0.03272043651972271,24.604100051733216,1.566930725614219,-0.002093935203440588,-0.002535724568184738,12759559.751394859,0.1001858953728724,1.0,0.20037179074574477,1.0
3.600000000000002,-0.0044734148291595555,48.02101919505821,0.03825133072640416,25.32228247233841,1.5667161885064012,-0.002145371078176965,-0.002569559545303246,12753243.895081587,0.09860791955079415,1.0,0.1972158391015883,1.0
3.700000000000002,-5.673236724322312e-05,50.62515185560164,0.044166824619163325,26.04132660543437,1.5664965916962985,-0.002195968101027313,-0.0026037085121022314,12746928.038698161,0.09697831206102685,1.0,0.1939566241220537,1.0
3.800000000000002,0.004990912511270758,53.30127523356688,0.0504764487851398,26.761233779652308,1.5662720217496435,-0.0022456994665499045,-0.00263812934268981,12740612.182243623,0.09529801043018678,1.0,0.19059602086037356,1.0
3.900000000000002,0.010709871636466636,56.049475765503054,0.05718959125195877,27.482005319361747,1.566042567863876,-0.0022945388576745846,-0.0026727787392701874,12734296.325717168,0.09356798071972743,1.0,0.18713596143945485,1.0
4.000000000000002,0.017141420880127416,58.869840019972145,0.06431549243660781,28.203642544690922,1.5658083218178007,-0.002342460460754096,-0.0027076122636235933,12727980.469118143,0.09178921697945672,1.0,0.18357843395891343,1.0
4.100000000000001,0.024327744897374062,61.762454697128504,0.07186324017246647,28.926146771563566,1.5655693779197675,-0.002389438980333515,-0.0027425843694905976,12721664.61244605,0.08996274068505063,1.0,0.17992548137010123,1.0
4.200000000000001,0.03231192137911416,64.72740662830373,0.07984176481740096,29.649519311752222,1.5653258329544046,-0.0024354496536291874,-0.002777648435843716,12715348.755700547,0.08808960015995641,1.0,0.17617920031991283,1.0
4.300000000000001,0.04113790482369383,67.76478277559855,0.08825983444579676,30.373761472948235,1.5650777861279335,-0.002480468264708635,-0.0028127568010229975,12709032.89888145,0.08617086998193456,1.0,0.17234173996386912,1.0
4.4,0.05085050983642964,70.87467023148339,0.09712605012735809,31.0988745588485,1.5648253390120974,-0.002524471158363152,-0.0028478607977142634,12702717.04198873,0.08420765037468966,1.0,0.16841530074937933,1.0
4.5,0.061495393965975545,74.0571562184093,0.10644884129545902,31.824859869259058,1.564568595486731,-0.002567435253664927,-0.0028829107887511363,12696401.185022514,0.08220106658481988,1.0,0.16440213316963975,1.0
4.6,0.07311904008675427,77.31232808843086,0.11623646120778727,32.55171870021553,1.564307661681011,-0.002609338057200739,-0.002917856203711766,12690085.327983085,0.08015226824453045,1.0,0.1603045364890609,1.0
4.699999999999999,0.08576873833695123,80.6402733228429,0.12649698250196964,33.27945234412045,1.5640426459134136,-0.0026501576759744663,-0.0029526455762920456,12683769.470870879,0.07806242872045453,1.0,0.15612485744090907,1.0
4.799999999999999,0.09949256762183342,84.04107953183264,0.137238292848822,34.008062089897365,1.5637736586304163,-0.002689872829970797,-0.002987226582431113,12677453.613686487,0.07593274444891276,1.0,0.15186548889782553,1.0
4.899999999999999,0.1143393766924148,87.51483445414881,0.14846809070581374,34.73754922316172,1.5635008123439793,-0.0027284628643728004,-0.0030215460791607196,12671137.75643065,0.07376443425807803,1.0,0.14752886851615607,1.0
4.999999999999998,0.1303587648097433,91.06162595678965,0.160193881173285,35.46791502640838,1.5632242215678367,-0.0027659077614261376,-0.003055550144159591,12664821.899104262,0.07155873867733807,1.0,0.14311747735467614,1.0
5.099999999999998,0.14760106200533332,94.68154203471121,0.17242297195590042,36.19916077921562,1.5629440027526422,-0.002802188151942957,-0.003089184115980359,12658506.04170836,0.06931691923434154,1.0,0.13863383846868307,1.0
5.1999999999999975,0.16611730894850987,98.37467081055776,0.18516246943176543,36.93128775846545,1.5626602742199986,-0.002837285326438703,-0.0031223926349301934,12652190.184244128,0.06704025774007175,1.0,0.13408051548014346,1.0
5.299999999999997,0.1859592364316676,102.14110053441577,0.19841927483157712,37.66429723858009,1.5623731560954088,-0.0028711812458952915,-0.00315511968457427,12645874.326712893,0.06473005556239321,1.0,0.12946011112478642,1.0
5.399999999999997,0.2071792444846796,105.98091958359319,0.2122000805301199,38.3981904917742,1.5620827702401947,-0.0029038585521443086,-0.0031873086338354284,12639558.46911612,0.062387632888456876,1.0,0.12477526577691374,1.0
5.4999999999999964,0.2298303811299151,109.89421646242548,0.22651136645235526,39.13296878832282,1.561789240182408,-0.0029353005778641516,-0.003218902279666258,12633242.611455405,0.060014327976454215,1.0,0.12002865595290843,1.0
5.599999999999996,0.2539663207895449,113.88107980210992,0.24135939659629765,39.868633396844494,1.5614926910467897,-0.0029654913561851996,-0.003249842890261423,12626926.753732482,0.05761149639704386,1.0,0.11522299279408771,1.0
5.699999999999996,0.27964134235702476,117.94159836056986,0.25675021567479833,40.60518558459938,1.5611932494838,-0.0029944156298973993,-0.0032800722487855705,12620610.895949205,0.05518051026501868,1.0,0.11036102053003737,1.0
5.799999999999995,0.30691030694485477,122.07586102235004,0.27268964587830014,41.3426266178019,1.560891043597774,-0.0030220588602548294,-0.00330953169758863,12614295.038107557,0.05272275746153148,1.0,0.10544551492306296,1.0
5.899999999999995,0.3358286353209105,126.28395679854479,0.2891832837605574,42.08095776194748,1.5605862028742368,-0.0030484072353720816,-0.003338162182874971,12607979.180209635,0.050239640847427214,1.0,0.10047928169485443,1.0
5.999999999999995,0.3664522850458353,130.5659748267601,0.30623649724924806,42.82018028215313,1.5602788581064162,-0.0030734476782075383,-0.0033659042998051003,12601663.322257651,0.047732577468074196,1.0,0.09546515493614839,1.0
6.099999999999994,0.398837727324169,134.92200437111123,0.3238544227833367,43.56029544351113,1.5599691413210033,-0.003097167854128841,-0.003392698337993938,12595347.464253923,0.04520299775017129,1.0,0.09040599550034258,1.0
6.199999999999994,0.43304192358206683,139.35213482225677,0.3420419625789782,44.301304511455555,1.5596571857031978,-0.0031195561780561327,-0.0034184843273796783,12589031.60620087,0.042652344691010896,1.0,0.08530468938202179,1.0
6.299999999999994,0.4691223017846347,143.85645569747086,0.36080378202567853,45.043208752141,1.5593431255210797,-0.003140601821178888,-0.0034432020844308298,12582715.748101013,0.04008207304063215,1.0,0.0801641460812643,1.0
6.399999999999993,0.5071367325060707,148.43505664075417,0.38014430721436065,45.786009432832955,1.5590270960493557,-0.0031602947172423993,-0.003466791258664337,12576399.889956959,0.037493648477363695,1.0,0.07498729695472738,1.0
6.499999999999993,0.5471435047659612,153.0880274229851,0.4000677225989048,46.52970782230933,1.5587092334925157,-0.0031786255684002483,-0.003489191379442147,12570084.031771401,0.034888546777216096,1.0,0.06977709355443219,1.0
6.5999999999999925,0.5892013016452277,157.81545794211235,0.42057796879266424,47.2743051912724,1.5583896749074528,-0.0031955858506293715,-0.003510341903014247,12563768.173547111,0.03226825297763245,1.0,0.0645365059552649,1.0
6.699999999999992,0.6333691756953654,162.61743822338943,0.4416787405013774,48.0198028127707,1.5580685581255826,-0.0032111678187045456,-0.003530182259783743,12557452.315286933,0.029634260536019936,1.0,0.05926852107203987,1.0
6.799999999999992,0.6797065241547479,167.49405841965245,0.46337348459382466,48.76620196263008,1.5577460216745096,-0.003225364510729427,-0.0035486519017533524,12551136.456993775,0.02698807048359653,1.0,0.05397614096719306,1.0
6.8999999999999915,0.7282730639858976,172.44540881164178,0.48566539831149746,49.51350391989332,1.5574222046992872,-0.0032381697522215263,-0.003565690350130657,12544820.598670606,0.02433119057504381,1.0,0.04866238115008762,1.0
6.999999999999991,0.7791288067477448,177.47157980836855,0.5085574276184711,50.26170996726765,1.5570972468833124,-0.0032495781597487727,-0.003581237243057922,12538504.740320446,0.021665134434422667,1.0,0.043330268868845334,1.0
7.099999999999991,0.8323340333170043,182.57266194752648,0.5320522656925954,51.01082139157936,1.5567712883689009,-0.0032595851441155825,-0.0035952323834318456,12532188.881946359,0.01899142069786831,1.0,0.03798284139573662,1.0
7.19999999999999,0.8879492684729077,187.74874589594998,0.5561523515590336,51.76083948423488,1.556444469677591,-0.0032681869130966323,-0.003607615786787921,12525873.02355145,0.01631157215353696,1.0,0.03262314430707392,1.0
7.29999999999999,0.9460352553596181,192.99992245011873,0.5808598688671038,52.51176554168748,1.5561169316302192,-0.003275380473716798,-0.003618327729213222,12519557.16513885,0.013627114879336232,1.0,0.02725422975867246,1.0
7.39999999999999,1.0066529298407474,198.32628253670964,0.6061767448112928,53.263600865908984,1.5557888152668116,-0.0032811636340759967,-0.0036273087952574112,12513241.306711718,0.010939577378896396,1.0,0.02187915475779279,1.0
7.499999999999989,1.0698633947604708,203.7279172131962,0.6321046491972326,54.01634676486554,1.5554602617663398,-0.003285535004717953,-0.0036344999258104416,12506925.448273228,0.008250489716303815,1.0,0.01650097943260763,1.0
7.599999999999989,1.1357278941258055,209.20491766849588,0.6586449936533472,54.770004552996824,1.5551314123663855,-0.0032884939995421634,-0.003639842465916754,12500609.589826563,0.00556138265007897,1.0,0.01112276530015794,1.0
7.699999999999989,1.204307787224685,214.75737522366566,0.6857989309887937,55.5245755516978,1.5548024082827596,-0.0032900408362586298,-0.003643278212490886,12494293.731374908,0.002873786766921593,1.0,0.0057475735338431855,1.0
7.799999999999988,1.2756645226945091,220.3853813326459,0.7135673546982412,56.28006108980223,1.554473390629121,-0.003290176536385196,-0.0036447494619067378,12487977.872921443,0.00018923161568524353,1.0,0.00037846323137048706,1.0
7.899999999999988,1.3498596125559033,226.0890275830526,0.741950898613942,57.03646250406716,1.5541445003366423,-0.0032889029247875896,-0.0036441990574260785,12481662.014469335,-0.0024907551579020615,1.0,-0.004981510315804123,1.0
7.999999999999988,1.4269546062264507,231.86840569701835,0.7709499367054734,57.793781139657554,1.553815878073766,-0.0032862226287625794,-0.0036415704364372026,12475346.156021733,-0.005164648675248172,1.0,-0.010329297350496343,1.0
8.099999999999987,1.5070110645291943,237.72360753208136,0.8005645830274369,58.55201835063026,1.5534876641660993,-0.003282139076664874,-0.003636807677470655,12469030.297581756,-0.007830927687203377,1.0,-0.015661855374406754,1.0
8.199999999999987,1.5900905337107265,243.654725082123,0.8307946918153226,59.31117550041647,1.5531599985164917,-0.00327665649607872,-0.003629855546960048,12462714.439152494,-0.01048807543412002,1.0,-0.02097615086824004,1.0
8.299999999999986,1.6762545194836922,249.6618504783532,0.861639857729657,60.07125396230181,1.5528330205253382,-0.0032697799115354014,-0.0036206595457215496,12456398.580736993,-0.013134580503165185,1.0,-0.02626916100633037,1.0
8.399999999999986,1.7655644611085395,255.74507599034354,0.8930994162484738,60.832255119903394,1.55250686901116,-0.0032615151417781066,-0.0036091659551140687,12450082.722338252,-0.015768937682455967,1.0,-0.031537875364911934,1.0
8.499999999999986,1.8580817055293453,261.90449402710783,0.9251724442080576,61.59418036764278,1.5521816821315026,-0.003251868796575916,-0.0035953218828552735,12443766.863959214,-0.018389648811461597,1.0,-0.036779297622923195,1.0
8.599999999999985,1.9538674815785277,268.14019713822927,0.9578577604918257,62.35703111121423,1.551857597304194,-0.0032408482730889253,-0.0035790753084610216,12437451.005602762,-0.020995223627221803,1.0,-0.041990447254443605,1.0
8.699999999999985,2.052982874265241,274.452278015034,0.9911539268671334,63.12080876804734,1.5515347511290152,-0.0032284617517867875,-0.003560375128274673,12431135.147271715,-0.02358418060588632,1.0,-0.04716836121177264,1.0
8.799999999999985,2.155488799162211,280.8408294918103,1.0250592489696975,63.88551476776323,1.5512132793098226,-0.0032147181919232096,-0.003539171200063418,12424819.288968813,-0.026155047799104568,1.0,-0.052310095598209136,1.0
