time[s],x[m],y[m],vx[m/s],vy[m/s],theta[rad],theta_dot[rad/s],alpha[rad],mass[kg],gimbalangle[deg],nonnominalthrottle[0-1],u0,u1
0.1,-0.00022824144210138814,0.06394298477326187,-0.0022824144210138813,0.6394298477326187,1.5707920492134362,-4.277581460352189e-05,-0.0035737148477599234,6939072.482520312,0.22063234816674918,1.0,0.22063234816674918,1.0
0.2,-0.0006851974492457049,0.19190554039167118,-0.004569560071443168,1.2796255561840932,1.5707834737039092,-8.575509526989051e-05,-0.003583851361241397,6935794.637621243,0.2216551461934893,1.0,0.22165514619348928,1.0
0.30000000000000004,-0.001370615822543269,0.3839643841975179,-0.006854183732975639,1.9205884380584672,1.5707705804528163,-0.00012893251092813151,-0.0035945247947790637,6932516.792773373,0.222650058545229,1.0,0.222650058545229,1.0
0.4,-0.0022835019620471245,0.6401963650887246,-0.009128861395038554,2.5623198089120667,1.5707533504208562,-0.00017230031960305104,-0.0036056943217246396,6929238.947974849,0.22360469668287378,1.0,0.22360469668287375,1.0
0.5,-0.0034221145098984555,0.9606784637440591,-0.011386125478513308,3.2048209865533455,1.5707317653470947,-0.0002158507376159101,-0.0036173581935909915,6925961.103223773,0.22451885860182913,1.0,0.22451885860182913,1.0
0.6,-0.004783961134886108,1.3454877928365696,-0.013618466249876528,3.848093290925105,1.5707058077526752,-0.0002595759441961839,-0.00362952092322133,6922683.258518217,0.22539236627446624,1.0,0.22539236627446624,1.0
0.7,-0.006365794443157746,1.794701597235118,-0.015818333082716376,4.492138043985483,1.570675460944368,-0.00030346808306859827,-0.0036421885585222746,6919405.413856219,0.22622505004653018,1.0,0.22622505004653018,1.0
0.7999999999999999,-0.008163608015989629,2.3083972541938342,-0.017978135728318825,5.1369565695871655,1.570640709017963,-0.000347519264048879,-0.003655367499263873,6916127.569235783,0.2270167486777526,1.0,0.22701674867775257,1.0
0.8999999999999999,-0.010172632575497751,2.8866522735293256,-0.020090245595081213,5.782550193354913,1.5706015368614983,-0.00039172156464789993,-0.00366906410130019,6912849.724654884,0.2277673093807571,1.0,0.2277673093807571,1.0
0.9999999999999999,-0.012387332279148736,3.5295442977854776,-0.02214699703650986,6.428920242561517,1.5705579301583301,-0.00043606703168389563,-0.0036832845170877704,6909571.880111467,0.22847658785817032,1.0,0.22847658785817032,1.0
1.0999999999999999,-0.014801401143904635,4.2371511023857025,-0.024140688647558993,7.076068046002253,1.57050987539004,-0.00048054768290242217,-0.0036980346221922034,6906294.03560345,0.22914444833801348,1.0,0.22914444833801348,1.0
1.2,-0.017407759600810868,5.009550595772498,-0.026063584569062336,7.723994933867951,1.5704573598391796,-0.0005251555086037368,-0.003713319977683538,6903016.191128724,0.2297707636073263,1.0,0.2297707636073263,1.0
1.3,-0.020198551180811687,5.846820819534176,-0.027907915800008187,8.372702237616775,1.5704003715918515,-0.0005698824732772667,-0.0037291458091490703,6899738.346685158,0.23035541504400592,1.0,0.23035541504400592,1.0
1.4000000000000001,-0.023165139332552504,6.749039948518657,-0.029665881517408173,9.022191289844812,1.5703388995401275,-0.0006147205172428355,-0.0037455169940647792,6896460.502270595,0.23089829264687256,1.0,0.23089829264687256,1.0
1.5000000000000002,-0.026298104372903107,7.716286290934216,-0.03132965040350604,9.672463424155584,1.5702729333842977,-0.0006596615582983168,-0.0037624380536747104,6893182.65788286,0.23139929506394202,1.0,0.23139929506394202,1.0
1.6000000000000003,-0.029587240570910205,8.748638288437071,-0.032891361980070984,10.323519975028564,1.57020246363496,-0.000704697493373379,-0.0037799131474491876,6889904.813519755,0.2318583296189073,1.0,0.2318583296189073,1.0
1.7000000000000004,-0.03302155336586217,9.846174516205753,-0.03434312794951965,10.975362277686829,1.5701274816149413,-0.0007498202001889834,-0.00379794606910111,6886626.969179067,0.2322753123357987,1.0,0.2322753123357987,1.0
1.8000000000000005,-0.036589256720123066,11.008973683002148,-0.03567703354260894,11.627991667963943,1.5700479794610493,-0.0007950215389222997,-0.003816540243598787,6883349.124858565,0.23265016796184446,1.0,0.23265016796184446,1.0
1.9000000000000006,-0.040277770607366856,12.237114631219166,-0.03688513887243788,12.281409482170178,1.5699639501256615,-0.0008402933538767039,-0.0038356987248426844,6880071.2805560045,0.23298282998852826,1.0,0.23298282998852826,1.0
2.0000000000000004,-0.0440737186368165,13.530676336914985,-0.03795948029449647,12.93561705695818,1.5698753873781461,-0.0008856274751565054,-0.003855424193811352,6876793.436269128,0.23327324067077448,1.0,0.23327324067077446,1.0
2.1000000000000005,-0.047962925814066464,14.889737909833805,-0.03889207177249962,13.590615729188206,1.569782285806111,-0.0009310157203460765,-0.0038757189570557404,6873515.591995666,0.23352135104436236,1.0,0.23352135104436236,1.0
2.2000000000000006,-0.05193041643904028,16.314378593413107,-0.03967490624973819,14.246406835793023,1.5696846408164917,-0.0009764498961930242,-0.0038965849454630774,6870237.74773334,0.2337271209414413,1.0,0.2337271209414413,1.0
2.3000000000000007,-0.055960412141608594,17.804677764777367,-0.04029995702568312,14.902991713642587,1.5695824486364625,-0.0010219218002950753,-0.003918023713242347,6866959.903479864,0.2338905190042607,1.0,0.2338905190042607,1.0
2.400000000000001,-0.06003633005536568,19.36071493471823,-0.040759179137570885,15.56037169940863,1.569475706314183,-0.0010674232227903164,-0.0039400364370953955,6863682.0592329465,0.23401152269701792,1.0,0.23401152269701792,1.0
2.500000000000001,-0.0641407811300359,20.982569747661156,-0.04104451074670224,16.218548129429244,1.5693644117193783,-0.0011129459480504476,-0.003962623915551466,6860404.21499029,0.23409011831586887,1.0,0.23409011831586887,1.0
2.600000000000001,-0.06825556858295419,22.670321981618514,-0.04114787452918275,16.877522339573595,1.5692485635437408,-0.001158481756376697,-0.0039857865684524985,6857126.370749596,0.23412630099707257,1.0,0.23412630099707257,1.0
2.700000000000001,-0.07236168649003719,24.4240515481292,-0.04106117907082994,17.53729566510687,1.5691281613011707,-0.0012040224256980535,-0.004009524436573653,6853848.526508564,0.23412007472330135,1.0,0.23412007472330135,1.0
2.800000000000001,-0.07643931851663467,26.243838492184757,-0.040776320265974914,18.197869440555586,1.5690032053278438,-0.0012495597332714563,-0.004033837181373512,6850570.682264895,0.2340714523280539,1.0,0.2340714523280539,1.0
2.9000000000000012,-0.08046783678862286,28.12976299214209,-0.040285182719881914,18.859244999573352,1.5688736967821055,-0.0012950854573836029,-0.00405872408487018,6847292.838016293,0.23398045549824253,1.0,0.23398045549824253,1.0
3.0000000000000013,-0.08442580090407366,30.081905359622816,-0.03957964115450798,19.521423674807238,1.5687396376442002,-0.00134059137905401,-0.0040841840496346205,6844014.993760466,0.2338471147748764,1.0,0.2338471147748764,1.0
3.1000000000000014,-0.08829095708580624,32.1003460393993,-0.03865156181732579,20.184406797764815,1.5686010307158262,-0.001386069283738988,-0.004110215598903899,6840737.149495127,0.23367146955192292,1.0,0.2336714695519229,1.0
3.2000000000000015,-0.09204023747509897,34.1851656092675,-0.037492803892927265,20.84819569868203,1.568457879619522,-0.0014315109630361588,-0.004136816876805005,6837459.305217998,0.23345356807323125,1.0,0.23345356807323123,1.0
3.3000000000000016,-0.09564975956681208,36.3364447799067,-0.036095220917131195,21.512791706392008,1.5683101887978836,-0.0014769082163891812,-0.004163985648695467,6834181.460926811,0.23319346742766173,1.0,0.23319346742766173,1.0
3.4000000000000017,-0.09909482578614305,38.55426439472619,-0.03445066219330965,22.1781961481949,1.5681579635126042,-0.0015222528527923122,-0.004191719301612773,6830903.6166193085,0.2328912335422807,1.0,0.2328912335422807,1.0
3.5000000000000018,-0.10234992320720818,40.838705429699075,-0.03255097421065119,22.844410349728886,1.5680012098433547,-0.0015675366924944626,-0.0042200148448356956,6827625.7722932445,0.2325469411737267,1.0,0.23254694117372668,1.0
3.600000000000002,-0.10538872341361591,43.189848993183325,-0.03038800206407733,23.511435634842474,1.5678399346864842,-0.0016127515687023796,-0.004248868910553094,6824347.92794639,0.23216067389766898,1.0,0.23216067389766898,1.0
3.700000000000002,-0.10818408250116861,45.60777632573014,-0.027953590875526978,24.17927332546817,1.5676741457535561,-0.0016578893292826078,-0.0042782777546441775,6821070.083576529,0.23173252409642223,1.0,0.2317325240964222,1.0
3.800000000000002,-0.11070804122280084,48.092568799879906,-0.02523958721632226,24.847924741497664,1.5675038515697102,-0.0017029418384618704,-0.0043082372575653505,6817792.239181468,0.23126259294467413,1.0,0.23126259294467413,1.0
3.900000000000002,-0.11293182527583383,50.644307919945774,-0.022237840530329924,25.51739120065864,1.5673290614718571,-0.0017479009785255166,-0.004338742925344974,6814514.394759029,0.23075099039335922,1.0,0.23075099039335922,1.0
4.000000000000002,-0.11482584573159677,53.2630753217851,-0.01894020455762938,26.18767401839331,1.567149785606706,-0.0017927586515136663,-0.004369789890685372,6811236.550307057,0.23019783515163308,1.0,0.23019783515163308,1.0
4.100000000000001,-0.1163596996074368,55.94895277255898,-0.015338538758400432,26.8587745077388,1.5669660349286143,-0.0018375067809147173,-0.004401372914172529,6807958.705823419,0.2296032546670248,1.0,0.2296032546670248,1.0
4.200000000000001,-0.11750217058111076,58.702022170479935,-0.011424709736739543,27.5306939792095,1.566777821197279,-0.0018821373133558362,-0.0044334863855903794,6804680.861306006,0.22896738510369224,1.0,0.22896738510369224,1.0
4.300000000000001,-0.11822122984752242,61.52236554454808,-0.0071905926641167095,28.203433740681454,1.5665851569752498,-0.0019266422202900905,-0.004466124325343657,6801403.016752738,0.22829037131882687,1.0,0.22829037131882687,1.0
4.4,-0.11848403711774053,64.41006505427598,-0.002628072702181022,28.876995097278964,1.566388055625282,-0.001971013499679865,-0.004499280385984683,6798125.172161557,0.22757236683721657,1.0,0.22757236683721657,1.0
4.5,-0.11825694176020286,67.36520298940232,0.00227095357537663,29.551379351263453,1.5661865313075143,-0.002015243177676192,-0.004532947853844949,6794847.327530439,0.22681353382391628,1.0,0.22681353382391628,1.0
4.6,-0.11750548408398355,70.38786176959479,0.007514576762193178,30.226587801924726,1.5659805989764852,-0.002059323310293664,-0.004567119650773721,6791569.4828573875,0.22601404305513267,1.0,0.22601404305513267,1.0
4.699999999999999,-0.1161943967639705,73.47812394414227,0.01311087320013046,30.902621745474747,1.5657702743779771,-0.0021032459850805485,-0.004601788335979685,6788291.63814044,0.22517407388718322,1.0,0.2251740738871832,1.0
4.799999999999999,-0.11428760640777147,76.63607219163667,0.019067903561990292,31.579482474943987,1.5655555740456988,-0.00214700332278377,-0.004636946107976047,6785013.793377666,0.22429381422370473,1.0,0.22429381422370473,1.0
4.899999999999999,-0.1117482352641374,79.86178931964473,0.0253937114363407,32.25717128008051,1.565336515297798,-0.0021905874790083915,-0.004672584806632019,6781735.948567169,0.22337346048095205,1.0,0.22337346048095205,1.0
4.999999999999998,-0.10853860307266257,83.15535826436991,0.032096321914748226,32.93568944725187,1.565113116233211,-0.0022339906458712496,-0.004708695915324412,6778458.103707091,0.22241321755131047,1.0,0.22241321755131047,1.0
5.099999999999998,-0.10462022905449174,86.5168620903049,0.03918374018170833,33.61503825934985,1.564885395727846,-0.0022772050536483865,-0.004745270563194071,6775180.25879561,0.22141329876497753,1.0,0.22141329876497753,1.0
5.1999999999999975,-0.09995383404373488,89.94638398987473,0.04666395010756852,34.29521899569833,1.5646533734306043,-0.0023202229724159276,-0.004782299527503087,6771902.4138309425,0.2203739258498211,1.0,0.2203739258498211,1.0
5.299999999999997,-0.0944993427592612,93.44400728307114,0.054544912844736934,34.97623293196411,1.5644170697592361,-0.002363036713684059,-0.004819773236096613,6768624.568811348,0.21929532888944747,1.0,0.21929532888944744,1.0
5.399999999999997,-0.08821588621651394,97.00981541707826,0.06283456542747262,35.658081340071085,1.564176505896034,-0.00240563863202374,-0.00485768176996193,6765346.723735123,0.21817774627944117,1.0,0.21817774627944117,1.0
5.4999999999999964,-0.08106180427895893,100.64389196589002,0.07154081937555015,36.34076548811757,1.5639317037833653,-0.002448021126685817,-0.004896014865892528,6762068.87860061,0.2170214246818335,1.0,0.2170214246818335,1.0
5.599999999999996,-0.07299464834874964,104.34632062991973,0.08067155930209294,37.02428664029711,1.5636826861190438,-0.0024901766432121903,-0.004934761919248575,6758791.033406196,0.21582661897778915,1.0,0.21582661897778915,1.0
5.699999999999996,-0.0639711841961627,108.11718523560201,0.09023464152586935,37.70864605682272,1.5634294763515402,-0.0025320976750386652,-0.004973911986819957,6755513.18815031,0.21459359221849283,1.0,0.21459359221849283,1.0
5.799999999999995,-0.05394739492732811,111.95656973498747,0.10023789268834585,38.39384499385466,1.563172098675031,-0.002573776765089173,-0.0050134537897865705,6752235.342831428,0.21332261557429077,1.0,0.21332261557429077,1.0
5.899999999999995,-0.04287848408974903,115.86455820533065,0.11068910837579085,39.07988470343188,1.562910578024295,-0.0026152065073609936,-0.005053375716778552,6748957.497448076,0.21201396828206792,1.0,0.21201396828206792,1.0
5.999999999999995,-0.03071887891507674,119.84123484867138,0.12159605174672285,39.766766433407206,1.5626449400694449,-0.002656379548500649,-0.005093665827031524,6745679.6519988235,0.21066793759086785,1.0,0.21066793759086785,1.0
6.099999999999994,-0.017422233698577226,123.88668399141001,0.13296645216499517,40.45449142738628,1.562375211210508,-0.002697288589370117,-0.005134311853642882,6742401.806482295,0.20928481870579718,1.0,0.20928481870579718,1.0
6.199999999999994,-0.002941433314695985,128.00099008387704,0.1448080038388124,41.14306092467042,1.5621014185718476,-0.002737926386603036,-0.005175301206920002,6739123.96089716,0.20786491473016738,1.0,0.20786491473016738,1.0
6.299999999999994,0.012771403131900803,132.18423769989738,0.15712836446596787,41.83247616020341,1.5618235899964326,-0.002778285754150557,-0.005216620977828823,6735846.115242141,0.2064085366059707,1.0,0.2064085366059707,1.0
6.399999999999993,0.029764918520460554,136.43651153634963,0.16993515388559752,42.52273836452233,1.5615417540399512,-0.002818359564816499,-0.005258257941532562,6732568.269516015,0.20491600305259144,1.0,0.20491600305259144,1.0
6.499999999999993,0.04808851379413442,140.75789641272087,0.18323595273673862,43.21384876371248,1.5612559399647725,-0.00285814075178149,-0.005300198561028591,6729290.423717609,0.20338764050387992,1.0,0.20338764050387992,1.0
6.5999999999999925,0.06779234390653308,145.1484772706575,0.19703830112398665,43.90580857936645,1.560966177733761,-0.0028976223101157446,-0.005342428990875447,6726012.577845803,0.20182378304350346,1.0,0.20182378304350346,1.0
6.699999999999992,0.08892731363558687,149.60833917351226,0.21134969729053796,44.59861902854746,1.5606724980039328,-0.0029367972982801516,-0.005384935081014897,6722734.731899535,0.20022477233865651,1.0,0.20022477233865651,1.0
6.799999999999992,0.1115450732654779,154.13756730588796,0.2261775962989103,45.29228132375693,1.5603749321199716,-0.002975658839615353,-0.005427702380684351,6719456.885877795,0.19859095757210193,1.0,0.19859095757210193,1.0
6.8999999999999915,0.13569801413744068,158.7362469731786,0.24152940871962783,45.98679667290644,1.5600735121075897,-0.003014200123818472,-0.005470716142421007,6716179.039779629,0.19692269537257157,1.0,0.19692269537257154,1.0
6.999999999999991,0.16143926407025672,163.404463601108,0.2574124993281603,46.68216627929408,1.559768270666749,-0.003052414408407174,-0.00551396132615367,6712901.1936041415,0.19522034974354094,1.0,0.19522034974354094,1.0
7.099999999999991,0.18882268265129679,168.14230273526653,0.27383418581040064,47.37839134158522,1.559459241164732,-0.0030902950201707365,-0.005557422603387208,6709623.347350492,0.19348429199038955,1.0,0.19348429199038955,1.0
7.19999999999999,0.21790285639899382,172.9498500406463,0.2908017374769702,48.07547305379785,1.559146457629071,-0.0031278353566078117,-0.005601084361471553,6706345.501017898,0.19171490064595748,1.0,0.19171490064595748,1.0
7.29999999999999,0.24873509379765713,177.82719130117556,0.30832237398663304,48.7734126052924,1.558829954740336,-0.003165028887350554,-0.0056449307079606825,6703067.654605636,0.18991256139452,1.0,0.18991256139452,1.0
7.39999999999999,0.2813754202055677,182.77441241925217,0.3264032640791059,49.472211180766195,1.5585097678247781,-0.0032018691555748095,-0.005688945475056162,6699789.80811304,0.1880776669941954,1.0,0.1880776669941954,1.0
7.499999999999989,0.3158805726373222,187.79159941527743,0.34505152431754516,50.171869960252536,1.5581859328468388,-0.0032383497793960466,-0.005733112224135972,6696511.961539502,0.18621061719778795,1.0,0.18621061719778795,1.0
7.599999999999989,0.35230799442142136,192.87883842718986,0.36427421784099145,50.87239011912442,1.5578584864015135,-0.00327446445325072,-0.0057774142503685955,6693234.114884474,0.1843118186720996,1.0,0.18431181867209956,1.0
7.699999999999989,0.39071582973412683,198.03621571000016,0.3840783531270546,51.57377282810299,1.5575274657065872,-0.0033102069492627643,-0.005821834587409036,6689956.268147468,0.18238168491571552,1.0,0.18238168491571552,1.0
7.799999999999988,0.43116291801063816,203.26381763532723,0.40447088276511334,52.276019253270725,1.5571929085947276,-0.0033455711185949046,-0.005866356012177221,6686678.421328053,0.18042063617529217,1.0,0.18042063617529217,1.0
7.899999999999988,0.47370878823466933,208.56173069093617,0.4254587022403117,52.97913055608935,1.5568548535054494,-0.003380550892784494,-0.005910961049717445,6683400.57442586,0.1784290993603396,1.0,0.1784290993603396,1.0
7.999999999999988,0.5184136531075317,213.93004148027842,0.44704864872862354,53.68310789342256,1.556513339476943,-0.003415140285063572,-0.0059556319781388645,6680122.727440582,0.1764075079565552,1.0,0.1764075079565552,1.0
8.099999999999987,0.5653384030978581,219.36883672203479,0.46924749990326353,54.38795241756353,1.5561684061377765,-0.003449333391662843,-0.006000350833632817,6676844.880371966,0.17435630193767215,1.0,0.17435630193767215,1.0
8.199999999999987,0.6145446003731294,224.8782032496615,0.49206197275271346,55.09366527626726,1.5558200936984667,-0.003483124393099298,-0.0060450994155683,6673567.0332198255,0.17227592767590183,1.0,0.17227592767590183,1.0
8.299999999999986,0.6660944726141931,230.45822801094027,0.515498722410637,55.80024761278771,1.555468442942922,-0.00351650755544718,-0.006089859291665833,6670289.1859840285,0.1701668378509367,1.0,0.1701668378509367,1.0
8.399999999999986,0.7200509067139882,236.10899806753227,0.5395643409979509,56.50770056591984,1.555113495219763,-0.003549477231592002,-0.00613461180324304,6667011.3386645075,0.1680294913575727,1.0,0.1680294913575727,1.0
8.499999999999986,0.7764774423617202,241.83060059453692,0.5642653564773208,57.216025270046444,1.554755292433516,-0.00358202786246735,-0.006179338070537943,6663733.491261251,0.16586435321192533,1.0,0.16586435321192533,1.0
8.599999999999985,0.8354382655137548,247.62312288005592,0.5896082315203456,57.925222855189844,1.5543938770356884,-0.0036141539782741784,-0.006224018998103098,6660455.643774311,0.16367189445630892,1.0,0.16367189445630892,1.0
8.699999999999985,0.8969982017525244,253.48665232476276,0.615599362387696,58.635294447068446,1.5540292920157202,-0.003645850199682331,-0.0062686352802707734,6657177.796203796,0.1614525920627635,1.0,0.1614525920627635,1.0
8.799999999999985,0.961222709534771,259.4212764414786,0.6422450778224655,59.34624116715814,1.5536615808918188,-0.003677111239014005,-0.006313167406690967,6653899.948549874,0.15920692883525245,1.0,0.15920692883525245,1.0
