t[s],x[m],y[m],vx[m/s],vy[m/s],mass[kg]
0.1,1.277638584592315e-17,1.6105877614964477,1.277638584592315e-16,1.1058776149644771,5518563.309723058
0.2,0.0003616271405998102,1.8318895356740448,0.003616271405997974,2.2130177417759707,5515205.519742937
0.30000000000000004,0.0013926802932842368,2.164030591543516,0.010310531526844266,3.3214105586947085,5511847.749886929
0.4,0.0031633138468040627,2.6071375064511386,0.017706335535198257,4.431069149076225,5508489.987211778
0.5,0.0056980623029730245,3.161337277758862,0.02534748456168962,5.541997713077234,5505132.228610373
0.6,0.008982849913359493,3.8267591680929325,0.03284787610386468,6.654218903340703,5501774.4711636705
0.7,0.012966940547565295,4.603533784021356,0.039840906342058,7.7677461592842345,5498416.71203327
0.7999999999999999,0.017565800656963587,5.491792003133593,0.04598860109398291,8.882582191122367,5495058.94881051
0.8999999999999999,0.022664878551552373,6.491665412121928,0.050990778945887855,9.998734089883348,5491701.17977739
0.9999999999999999,0.028124115191232358,7.603286083315087,0.05459236639679984,11.116206711931586,5488343.404042856
1.0999999999999999,0.03378299416073536,8.826786320260442,0.056588789695030006,12.23500236945356,5484985.621555088
1.2,0.039465929668752224,10.162298391096428,0.05682935508016864,13.355120708359859,5481627.83300607
1.3,0.044987792828287805,11.60995426536851,0.0552186315953558,14.476558742720812,5478270.039655605
1.4000000000000001,0.05015938403210084,13.169885365592833,0.051715912038130286,15.599311002243239,5474912.24310799
1.5000000000000002,0.05479267173179926,14.842222339915587,0.04633287699698426,16.72336974322754,5471554.445075636
1.6000000000000003,0.058705633976984035,16.62709485733499,0.03912962245184775,17.848725174194033,5468196.647160658
1.7000000000000004,0.06172655687878972,18.524631423142786,0.03020922901805691,18.975365658077987,5464838.85067884
1.8000000000000005,0.06369765037168805,20.534952139060902,0.019710934928983216,20.103207159181164,5461481.056541663
1.9000000000000006,0.06447790843289143,22.658169747226314,0.00780258061203388,21.23217608165413,5458123.265202662
2.0000000000000004,0.06394511108598837,24.894409466052632,-0.005327973469030647,22.362397188263202,5454765.476665577
2.1000000000000005,0.061996996896428826,27.243798798799702,-0.019481141895595397,23.4938933274707,5451407.690544656
2.2000000000000006,0.05855237087930089,29.706471383453014,-0.03444626017127936,24.62672584653311,5448049.90616238
2.3000000000000007,0.053556424241891484,32.28256294968848,-0.04995946637409407,25.760915662354716,5444692.122668964
2.400000000000001,0.046986753623037184,34.97220822451317,-0.06569670618854302,26.896452748246816,5441334.3391751265
2.500000000000001,0.03883848939902101,37.77554257311126,-0.08148264224016173,28.033343485980946,5437976.554882157
2.600000000000001,0.029121167861607414,40.692702700339346,-0.09717321537413595,29.171601272280892,5434618.769155006
2.700000000000001,0.017859364946524764,43.72382361939195,-0.11261802915082651,30.31120919052606,5431260.981557087
2.800000000000001,0.005087763709091255,46.869042312455164,-0.12771601237433508,31.45218693063212,5427903.191870807
2.9000000000000012,-0.009148392364202706,50.12849449575888,-0.1423615607329396,32.59452183303717,5424545.400087117
3.0000000000000013,-0.02479830469521334,53.502310564054575,-0.1564991233101063,33.738160682956966,5421187.606374659
3.1000000000000014,-0.0418070110349598,56.990625118647316,-0.17008706339746457,34.883145545927384,5417829.811031725
3.2000000000000015,-0.060116378633699036,60.593574815484246,-0.18309367598739237,36.0294969683693,5414472.0144312065
3.3000000000000016,-0.07966969271854193,64.31129828059952,-0.195533140848429,37.17723465115277,5411114.21696737
3.4000000000000017,-0.10041300695390493,68.14393386857108,-0.20743314235362992,38.32635587971573,5407756.419007065
3.5000000000000018,-0.12230374559662584,72.09161700091781,-0.2189073864272091,39.47683132346731,5404398.620853417
3.600000000000002,-0.14529971650320211,76.15448115294008,-0.22995970906576288,40.62864152022268,5401040.822724859
3.700000000000002,-0.16936676102141637,80.33265971253762,-0.2406704451821426,41.78178559597543,5397683.024749828
3.800000000000002,-0.19447993545521602,84.62628683909857,-0.25113174433799657,42.93627126560951,5394325.22697149
3.900000000000002,-0.22062342173381966,89.03549742982082,-0.26143486278603634,44.092105907222546,5390967.429364204
4.000000000000002,-0.2477910823564532,93.56042701786893,-0.2716766062263354,45.24929588048106,5387609.631856515
4.100000000000001,-0.2759862029520378,98.20121151247179,-0.281951205955846,46.40784494602853,5384251.834356641
4.200000000000001,-0.30522099464246055,102.95798717864014,-0.2923479169042278,47.56775666168352,5380894.036776723
4.300000000000001,-0.3355158262613267,107.8308905822693,-0.30294831618866125,48.729034036291615,5377536.239052611
4.4,-0.3668980021330212,112.82005851367589,-0.3138217587169453,49.89167931406585,5374178.441157203
4.5,-0.39940038831349867,117.92562802328493,-0.3250238618047749,51.05569509609036,5370820.643106352
4.6,-0.43306002461436827,123.14773636328454,-0.3365963630086962,52.221083399996125,5367462.844957611
4.699999999999999,-0.4679165685682365,128.48652096592596,-0.34856543953868196,53.3878460264142,5364105.046803001
4.799999999999999,-0.5040107173355721,133.94211942960396,-0.36094148767335643,54.555984636780025,5360747.248757505
4.899999999999999,-0.5413826728790555,139.51466951586536,-0.3737195554348333,55.72550086261394,5357389.450945349
4.999999999999998,-0.5800707290971411,145.2043092420006,-0.3868805621808555,56.89639726135212,5354031.653486159
5.099999999999998,-0.6201101822491774,151.01117674673452,-0.40039453152036236,58.06867504733938,5350673.85648274
5.1999999999999975,-0.6615327031566053,156.93541041507808,-0.4142252090742793,59.24233668343549,5347316.060011693
5.299999999999997,-0.7043651681819169,162.97714890510434,-0.428324650253116,60.417384900262654,5343958.264117343
5.399999999999997,-0.7486285286932204,169.1365313550678,-0.4426336051130357,61.593824499634586,5340600.468809614
5.4999999999999964,-0.7943372315061247,175.4136982029924,-0.4570870281290428,62.77166847924591,5337242.674066061
5.599999999999996,-0.8414983160219882,181.80878877721997,-0.4716108451586356,63.95090574227559,5333884.879837037
5.699999999999996,-0.8901115139219881,188.3219573016549,-0.4861319789999984,65.13168524434907,5330527.086053369
5.799999999999995,-0.9401693502098543,194.9533438209999,-0.500578362878662,66.31386519345004,5327169.2926350385
5.899999999999995,-0.991656980160653,201.70309439708527,-0.5148762995079865,67.49750576085366,5323811.4994994495
5.999999999999995,-1.0445518409369807,208.57135203747114,-0.5289486077632768,68.68257640385865,5320453.706569466
6.099999999999994,-1.0988238555022447,215.55825868304075,-0.54272014565264,69.86906645569609,5317095.913780884
6.199999999999994,-1.1544391504654363,222.66395382609883,-0.5561529496319169,71.05695143058075,5313738.121088261
6.299999999999994,-1.2113648765527703,229.88857519967394,-0.5692572608733399,72.24621373575094,5310380.328465467
6.399999999999993,-1.2695645280147896,237.23225812126924,-0.5819965146201935,73.43682921595313,5307022.5359005425
6.499999999999993,-1.3289978742659836,244.69513751873654,-0.5943334625119393,74.62879397467294,5303664.743397022
6.5999999999999925,-1.3896339913874327,252.27734979852065,-0.606361171214491,75.82212279784095,5300306.95097741
6.699999999999992,-1.451428923377133,259.97903383649026,-0.6179493198970019,77.01684037969628,5296949.158670558
6.799999999999992,-1.5143348063740367,267.80033103991804,-0.6290588299690371,78.21297203427787,5293591.366523155
6.8999999999999915,-1.5783082429986042,275.7413850421497,-0.6397343662456739,79.41054002231657,5290233.574607983
6.999999999999991,-1.6433069738299881,283.80233989480445,-0.6499873083138389,80.60954852654724,5286875.783012002
7.099999999999991,-1.7092890410307016,291.98334026621666,-0.6598206720071352,81.81000371412183,5283517.991833214
7.19999999999999,-1.776213037943045,300.28453112712873,-0.6692399691234338,83.01190860912081,5280160.201183242
7.29999999999999,-1.8440400734184876,308.7060561451261,-0.678270354754427,84.21525017997371,5276802.41118792
7.39999999999999,-1.9127369682155664,317.24805775816424,-0.6869689479707883,85.42001613038097,5273444.6219846755
7.499999999999989,-1.9822765375936182,325.9106775916803,-0.695395693780519,86.62619833516113,5270086.833714982
7.599999999999989,-2.052634824084866,334.694056300685,-0.7035828649124771,87.83378709004666,5266729.046515971
7.699999999999989,-2.1237887102437925,343.59833315875704,-0.7115388615892658,89.04276858072039,5263371.260516594
7.799999999999988,-2.1957145935319144,352.6236474995162,-0.7192588328812212,90.25314340759179,5260013.475836976
7.899999999999988,-2.2683866407066295,361.77013813265955,-0.7267204717471528,91.46490633143318,5256655.692587927
7.999999999999988,-2.3417779300361237,371.03794356104726,-0.7339128932949422,92.67805428387699,5253297.910871796
8.099999999999987,-2.4158592509354677,380.42720216408276,-0.7408132089934425,93.89258603035503,5249940.1307807015
8.199999999999987,-2.4905982960076716,389.9380523920044,-0.7473904507220404,95.10850227921645,5246582.352395721
8.299999999999986,-2.5659604267081226,399.57063291321003,-0.7536213070045119,96.3258052120562,5243224.575789182
8.399999999999986,-2.641908053814423,409.32508286809775,-0.7594762710630044,97.54449954887716,5239866.801025001
8.499999999999986,-2.7183988151293415,419.2015420104828,-0.7649076131491859,98.76459142385066,5236509.02815993
8.599999999999985,-2.7953892954312494,429.2001508681258,-0.7699048030190814,99.98608857642999,5233151.2572501525
8.699999999999985,-2.8728615834651223,439.3210506254803,-0.77472288033873,101.20899757354555,5229793.488349418
8.799999999999985,-2.9507527382311225,449.5643834692984,-0.7789115476600028,102.43332843818033,5226435.721441511
8.899999999999984,-3.0290096504309925,459.9302928293446,-0.7825691219986993,103.659093600462,5223077.956546752
8.999999999999984,-3.107576805794419,470.41892355351126,-0.7856715536342667,104.88630724166683,5219720.193728883
9.099999999999984,-3.1863940408312446,481.0304218060629,-0.7881723503682547,106.11498252551645,5216362.433046534
9.199999999999983,-3.2653998546840137,491.76493493168624,-0.7900581385276927,107.34513125623307,5213004.674576181
9.299999999999983,-3.344531138152781,502.62261124820253,-0.791312834687674,108.57676316516284,5209646.918412316
9.399999999999983,-3.42372357153816,513.6035997510455,-0.7919243338537894,109.80988502842948,5206289.164664809
9.499999999999982,-3.502910717821619,524.7080460232734,-0.7918714628345892,111.0444627222788,5202931.413459304
9.599999999999982,-3.5820253415909247,535.9360998347635,-0.7911462376930551,112.28053811490129,5199573.664939801
9.699999999999982,-3.6610005559788625,547.2879103759104,-0.7897521438793774,113.51810541146988,5196215.919267789
9.799999999999981,-3.7397693662185905,558.7636273730461,-0.7876881023972803,114.75716997135665,5192858.176616115
9.89999999999998,-3.8182657978824666,570.3633993625202,-0.7849643166387592,115.99771989474088,5189500.4371658405
9.99999999999998,-3.896426190083708,582.0873748037922,-0.7816039220124146,117.239754412719,5186142.701100908
10.09999999999998,-3.974186814420504,593.9357010877924,-0.7776062433679609,118.48326284000217,5182784.968597277
10.19999999999998,-4.051485115233311,605.9085247111975,-0.7729830081280729,119.7282362340512,5179427.239821816
10.29999999999998,-4.128258806863592,618.0059920114587,-0.7677369163028008,120.974673002612,5176069.514928963
10.399999999999979,-4.204445365203393,630.2282492448661,-0.7618655833980059,122.22257233407407,5172711.794056576
10.499999999999979,-4.279981997987756,642.5754412736527,-0.755366327843631,123.47192028786544,5169354.077325933
10.599999999999978,-4.354804943534022,655.0477119726188,-0.7482294554626657,124.72270698966088,5165996.364840469
10.699999999999978,-4.428848760766731,667.6452039440146,-0.7404381723270833,125.97491971395755,5162638.656686602
10.799999999999978,-4.502043585524678,680.3680576527661,-0.731948247579475,127.22853708751512,5159280.9529377585
10.899999999999977,-4.574318670121647,693.2164127664918,-0.7227508459696917,128.4835511372572,5155923.253668961
10.999999999999977,-4.645600204308935,706.1904086998388,-0.7128153418728849,129.73995933347,5152565.558955272
11.099999999999977,-4.715811179589476,719.290186120763,-0.7021097528054124,130.99777420924167,5149207.868874127
11.199999999999976,-4.78487149754649,732.5158827681947,-0.6906031795701356,132.2569664743173,5145850.183515855
11.299999999999976,-4.852695083244142,745.867636056143,-0.6782358569765172,133.51753287948327,5142492.502989168
11.399999999999975,-4.919197218488233,759.3455836490675,-0.6650213524409131,134.77947592924468,5139134.827439747
11.499999999999975,-4.984291717650703,772.9498635174857,-0.650944991624697,136.04279868418206,5135777.157034135
11.599999999999975,-5.04789146293089,786.6806141696507,-0.6359974528018713,137.30750652164906,5132419.491950269
11.699999999999974,-5.109908628341188,800.5379747491684,-0.6201716541029821,138.57360579517697,5129061.832382241
11.799999999999974,-5.170255057430675,814.5220850945758,-0.6034642908948742,139.84110345407424,5125704.178537331
11.899999999999974,-5.228842442803875,828.6330857397664,-0.5858738537319941,141.11000645190634,5122346.530632047
11.999999999999973,-5.28558000506369,842.871117885481,-0.5673756225981565,142.38032145714604,5118988.888887623
12.099999999999973,-5.340379617795456,857.236323474146,-0.5479961273176611,143.65205588665043,5115631.253538779
12.199999999999973,-5.393152977887989,871.7288449586882,-0.5277336009253313,144.92521484542232,5112273.624814879
12.299999999999972,-5.443811334455084,886.3488252152821,-0.5065835656709523,146.19980256593882,5108916.002930511
12.399999999999972,-5.4922652428076075,901.0964074649621,-0.4845390835252337,147.47582249680028,5105558.388091312
12.499999999999972,-5.5384243221434275,915.9717352066577,-0.4615907933581993,148.75327741695577,5102200.780493803
12.599999999999971,-5.582197034921636,930.9749521640177,-0.4377271277820876,150.03216957359956,5098843.180325846
12.69999999999997,-5.623490502432796,946.1062022468375,-0.4129346751115973,151.31250082819759,5095485.587767839
12.79999999999997,-5.662210365709387,961.3656295265602,-0.3871986327659101,152.59427279722667,5092128.002994477
12.89999999999997,-5.698260695692832,976.753378224264,-0.3605032998344454,153.87748697703802,5088770.426176849
12.99999999999997,-5.731543951903912,992.2695927088021,-0.3328325621108065,155.162144845381,5085412.857484679
13.09999999999997,-5.761960985023018,1007.9144175023472,-0.3041703311910584,156.4482479354513,5082055.297088493
13.199999999999969,-5.789406297095396,1023.6879972997981,-0.2744531207237825,157.7357979745085,5078697.745161566
13.299999999999969,-5.813778749398133,1039.5904771678386,-0.24372452302737485,159.02479868040402,5075340.201913407
13.399999999999968,-5.834975878885202,1055.6220023327433,-0.2119712948706934,160.31525164904784,5071982.667550353
13.499999999999968,-5.852893791562417,1071.782718179355,-0.1791791267721528,161.60715846611825,5068625.142259978
13.599999999999968,-5.8674212228580185,1088.072770261157,-0.14527431295600762,162.90052081802128,5065267.626231843
13.699999999999967,-5.878452975614096,1104.4923045030023,-0.11031752756077845,164.1953424184513,5061910.119701852
13.799999999999967,-5.885891048315037,1121.041466960389,-0.07438072700941073,165.49162457386737,5058552.622898082
13.899999999999967,-5.889625425659473,1137.7204028368,-0.037343773444349956,166.78935876411148,5055195.135957984
13.999999999999966,-5.88954455849688,1154.5292582204277,0.0008086716259334825,168.08855383627548,5051837.659037539
14.099999999999966,-5.8855357374532655,1171.4681793942439,0.040088210436139485,169.38921173816223,5048480.19234485
14.199999999999966,-5.87748524296984,1188.5373128404628,0.08050494483425841,170.6913344621898,5045122.736100048
14.299999999999965,-5.865278449535406,1205.736805238754,0.12206793434433427,171.99492398291073,5041765.290532059
14.399999999999965,-5.848799890305396,1223.0668034597247,0.1647855923000963,173.29998220970683,5038407.855876699
14.499999999999964,-5.827933284692703,1240.5274545552772,0.20866605612693395,174.60651095552413,5035050.4323748015
14.599999999999964,-5.802561533967902,1258.118905747358,0.25371750724801084,175.91451192080785,5031693.020270485
14.699999999999964,-5.77256669168715,1275.8413044163983,0.2999484228075202,177.2239866904035,5028335.6198096955
14.799999999999963,-5.737829916620665,1293.6947980904436,0.3473677506648435,178.5349367404529,5024978.231239078
14.899999999999963,-5.698224727158412,1311.6795344226402,0.3960518946225265,179.84736332196798,5021620.85480524
14.999999999999963,-5.653632150461474,1329.7956612727892,0.4459257669693793,181.16126850148837,5018263.490812094
15.099999999999962,-5.603932201333921,1348.0433265937418,0.4969994912755402,182.4766532095269,5014906.139544175
15.199999999999962,-5.549003528477881,1366.4226784295129,0.5492867285603994,183.79351835771033,5011548.801238488
15.299999999999962,-5.488723281370389,1384.933864916502,0.6028024710749278,185.11186486989186,5008191.476124537
15.399999999999961,-5.422967045256714,1403.5770342880758,0.6575623611367448,186.43169371573723,5004834.164429169
15.499999999999961,-5.351608830793086,1422.3523348810033,0.7135821446362797,187.75300592927525,5001476.866379739
15.59999999999996,-5.274529571982718,1441.2599151744917,0.7707925881036743,189.0758029348824,4998119.582206764
15.69999999999996,-5.191597794188118,1460.2999237683619,0.8293177779460036,190.40008593870172,4994762.312065742
15.79999999999996,-5.102680594687668,1479.4725094263747,0.8891719950044912,191.725856580128,4991405.056146736
15.89999999999996,-5.007644132910297,1498.7778210644888,0.9503646177737091,193.0531163811409,4988047.814713958
15.99999999999996,-4.90635383605159,1518.2160077390406,1.0129029685870667,194.3818667455176,4984690.588049452
16.09999999999996,-4.798674514700686,1537.7872186334637,1.0767932135090408,195.71210894423146,4981333.3764463775
16.19999999999996,-4.684470404160701,1557.4916030461695,1.1420411053998496,197.04384412705784,4977976.180204533
16.29999999999996,-4.563605144753971,1577.3293103816666,1.2086525940672939,198.37707335497038,4974618.999626492
16.399999999999963,-4.4359417170291895,1597.3004901461459,1.2766342772478192,199.711797644793,4971261.835014523
16.499999999999964,-4.301342348541638,1617.4052919479554,1.3459936848755087,201.0480180180951,4967904.686668405
16.599999999999966,-4.1596684078709645,1637.6438655027575,1.4167394067067343,202.38573554802105,4964547.554884162
16.699999999999967,-4.010780299248803,1658.0163606427457,1.4888810862216153,203.72495139988078,4961190.439953621
16.79999999999997,-3.8545373680948956,1678.522927329086,1.5624293115390757,205.0656668634042,4957833.342164664
16.89999999999997,-3.6907978243756836,1699.1637156667173,1.637395437192119,206.40788337631264,4954476.261801987
16.99999999999997,-3.519415247757351,1719.9388758934506,1.7138257661833252,207.75160226733294,4951119.199148167
17.099999999999973,-3.3402464548752646,1740.8485582983983,1.7916879288208643,209.09682404947677,4947762.154523501
17.199999999999974,-3.1531470390970497,1761.8929133501947,1.8709941577821503,210.44355051796313,4944405.128234722
17.299999999999976,-2.9579699014519822,1783.0720909966535,1.9517713764506757,211.7917764645883,4941048.120557435
17.399999999999977,-2.7545681423650072,1804.3862420927242,2.0340175908697504,213.14151096070552,4937691.131779578
17.49999999999998,-2.542793485154585,1825.835517758878,2.117746572104222,214.49275666153864,4934334.162185241
17.59999999999998,-2.322496255669301,1847.4200694168564,2.20297229485284,215.84551657978344,4930977.212049038
17.69999999999998,-2.093525422138907,1869.140048822919,2.289708335303938,217.1997940606252,4927620.281647476
17.799999999999983,-1.8557286565781559,1890.9956081015484,2.377967655607512,218.5555927862956,4924263.371260671
