t[s],x[m],y[m],vx[m/s],vy[m/s],mass[kg]
0.1,-0.001141139522720931,0.06393243824735839,-0.01141139522720931,0.6393243824735839,6939072.617838496
0.2,-0.003424855390334778,0.19187383493346047,-0.022837158676138468,1.2794139668610207,6935794.909284915
0.30000000000000004,-0.006848027904225548,0.38390088321638727,-0.034231725138907695,1.9202704828292683,6932517.201547494
0.4,-0.011402897238555105,0.6400904506639552,-0.04554869334329556,2.561895674475679,6929239.494343796
0.5,-0.0170770473941686,0.9605195789985832,-0.05674150155613492,3.2042912833462798,6925961.787389172
0.6,-0.023853394839431878,1.3452654833515076,-0.0677634744526328,3.8474590435292453,6922684.080397925
0.7,-0.03171018177521261,1.7944055510269656,-0.07856786935780735,4.491400676754579,6919406.373084449
0.7999999999999999,-0.04062097403753965,2.308017339777683,-0.08910792262327036,5.136117887507174,6916128.665164375
0.8999999999999999,-0.05055466364688965,2.886178575595293,-0.0993368960935,5.781612358176099,6912850.9563557105
0.9999999999999999,-0.061475476008443344,3.528967150021585,-0.10920812361553689,6.4278857442629205,6909573.246379971
1.0999999999999999,-0.0733429817630313,4.236461116988759,-0.11867505754587968,7.074939669671744,6906295.534963293
1.2,-0.086112113283854,5.008738689199103,-0.12769131520822694,7.722775722103436,6903017.821837537
1.3,-0.09973318580941545,5.84587823405672,-0.1362107252556145,8.371395448576159,6899740.106741359
1.4000000000000001,-0.11415192319845992,6.747958269166116,-0.14418737389044464,9.020800351093959,6896462.389421263
1.5000000000000002,-0.12930948828804834,7.715057457414579,-0.15157565089588418,9.670991882484634,6893184.669632612
1.6000000000000003,-0.14514251783126106,8.74725460165733,-0.15833029543212723,10.32197144242751,6889906.947140615
1.7000000000000004,-0.16158316198636877,9.844628639026439,-0.1644064415510772,10.973740373691093,6886629.22172127
1.8000000000000005,-0.17855912832467885,11.00725863488642,-0.16975966338310072,11.626299958599793,6883351.493162257
1.9000000000000006,-0.19599373031964368,12.235223776461224,-0.17434601994964818,12.279651415748043,6880073.7612637915
2.0000000000000004,-0.21380594027521493,13.52860336615915,-0.1781220995557125,12.933795896979266,6876796.025839429
2.1000000000000005,-0.23191044664684757,14.887476814623756,-0.18104506371632625,13.588734484646068,6873518.286716808
2.2000000000000006,-0.25021771570400364,16.31192363354046,-0.1830726905715609,14.244468189167025,6870240.543738339
2.3000000000000007,-0.2686340574784846,17.802023428229884,-0.18416341774480988,14.900997946894254,6866962.796761839
2.400000000000001,-0.2870616959384335,19.35785589006036,-0.1842763845994888,15.558324618304752,6863685.045661095
2.500000000000001,-0.3053988433234035,20.979500788713082,-0.18337147384969987,16.216448986527237,6860407.290326368
2.600000000000001,-0.32353977857148847,22.667037964334572,-0.18140935248084947,16.875371756214882,6857129.530664831
2.700000000000001,-0.34137492976516054,24.420547319611874,-0.17835151193672083,17.535093552773006,6853851.766600935
2.800000000000001,-0.3587909605181647,26.240108811806802,-0.17416030753004183,18.195614921949296,6850573.998076703
2.9000000000000012,-0.3756708602215847,28.125802444786082,-0.16879899703419957,18.85693632979279,6847296.225051963
3.0000000000000013,-0.3918940380630241,30.07770826108471,-0.1622317784143939,19.519058162986273,6844018.447504492
3.1000000000000014,-0.40733642072874743,32.09590633404024,-0.15442382665723348,20.18198072955526,6840740.6654301025
3.2000000000000015,-0.42187055369459947,34.18047676003576,-0.14534132965852034,20.84570425995526,6837462.878842649
3.3000000000000016,-0.435365706007578,36.3314996508895,-0.1349515231297856,21.510228908537364,6834185.087773957
3.4000000000000017,-0.44768797845607666,38.54905512642858,-0.12322272448498647,22.175554755390774,6830907.292273689
3.5000000000000018,-0.4587004150230457,40.8332233072845,-0.11012436566969022,22.841681808559223,6827629.492409124
3.600000000000002,-0.4682631175126484,43.184084307947174,-0.0956270248960265,23.508610006626764,6824351.688264879
3.700000000000002,-0.47623336323741905,45.60171823011386,-0.07970245724770668,24.17633922166684,6821073.879942552
3.800000000000002,-0.48246572564946605,48.086205156368564,-0.06232362412047024,24.844869262547018,6817796.067560295
3.900000000000002,-0.48681219779590934,50.63762514422659,-0.04346472146443267,25.514199878580282,6814518.251252322
4.000000000000002,-0.4891223184755068,53.25605822057782,-0.023101206795974397,26.184330763512317,6811240.431168355
4.100000000000001,-0.4892433009703091,55.941584376561096,-0.001209824948023068,26.855261559832783,6807962.607472995
4.200000000000001,-0.4870201642231934,58.694283562900814,0.022231367471157237,27.52699186339718,6804684.780345048
4.300000000000001,-0.4822958663292684,61.51423568573527,0.04724297893925,28.19952122834455,6801406.949976777
4.4,-0.4749114402064216,64.40152060296478,0.07384426122846771,28.872849172295055,6798129.116573111
4.5,-0.46470613130769534,67.35621812114579,0.10205308898726297,29.546975181810055,6794851.280350797
4.6,-0.4515175372357393,70.37840799295543,0.13188594071956064,30.2218987180964,6791573.441537501
4.699999999999999,-0.43518174911729646,73.46816991524896,0.1633578811844281,30.897619222935326,6788295.600370874
4.799999999999999,-0.4155334945935384,76.62558352773051,0.19648254523758077,31.574136124815425,6785017.757097563
4.899999999999999,-0.39240628228008073,79.85072841225534,0.2312721231345764,32.251448845248234,6781739.911972198
4.999999999999998,-0.36563254754868435,83.14368409277974,0.26773734731396387,32.92955680524406,6778462.0652563395
5.099999999999998,-0.33504379948098045,86.50453003597222,0.3058874806770391,33.60845943192491,6775184.2172174
5.1999999999999975,-0.3004707688430582,89.9333456524973,0.3457303063792229,34.28815616525071,6771906.368127539
5.299999999999997,-0.26174355692841744,93.43021029898074,0.38727211914640713,34.968646464834386,6768628.518262542
5.399999999999997,-0.2186917851156247,96.99520328066284,0.4305177181279275,35.64992981682096,6765350.667900682
5.4999999999999964,-0.17114474498601312,100.62840385474335,0.47547040129611584,36.332005740805215,6762072.817321576
5.599999999999996,-0.118931548845947,104.32989123441959,0.5221319614006611,37.01487379676241,6758794.966805024
5.699999999999996,-0.061881280497519744,108.09974459361621,0.5705026834842726,37.698533591966175,6755517.116629864
5.799999999999995,0.0001768538989197488,111.93804307240298,0.6205813439643949,38.38298478786766,6752239.267072817
5.899999999999995,0.06741337502731648,115.84486578309398,0.6723652112839673,39.06822710691002,6748961.41840735
5.999999999999995,0.13999837984056362,119.82029181701922,0.7258500481324716,39.75426033925239,6745683.570902546
6.099999999999994,0.21810139136423862,123.864400251957,0.7810301152367497,40.44108434937776,6742405.724821999
6.199999999999994,0.3018912090361711,127.97727016021294,0.8378981767193251,41.12869908255944,6739127.8804227235
6.299999999999994,0.3915357597381919,132.15898061732906,0.8964455070202075,41.8171045711612,6735850.0379541
6.399999999999993,0.4872019496758351,136.40961071140373,0.9566618993764321,42.50630094074667,6732572.1976568485
6.499999999999993,0.5890555172610199,140.72923955300115,1.018535675851848,43.196288415974315,6729294.359762031
6.5999999999999925,0.6972608871518166,145.11794628562663,1.082053698907966,43.8870673262548,6726016.524490108
6.699999999999992,0.8119810256023144,149.5758100967415,1.1472013845049789,44.578638111148514,6722738.6920500295
6.799999999999992,0.9333772972743538,154.10291022928968,1.2139627167203937,45.27100132548184,6719460.862638375
6.8999999999999915,1.0616093236614608,158.69932599370586,1.2823202638710687,45.964157644161766,6716183.036438545
6.999999999999991,1.1968348432737421,163.3651367803728,1.352255196122814,46.65810786666943,6712905.213620012
7.099999999999991,1.339209573730755,168.10042207249424,1.4237473045701283,47.352852921214385,6709627.394337619
7.19999999999999,1.4888870759074617,172.90526145934749,1.4967750217670674,48.04839386853251,6706349.578730951
7.29999999999999,1.6460186202763325,177.77973464987866,1.571315443688708,48.744731905311866,6703071.766923763
7.39999999999999,1.8107530555864493,182.72392148660185,1.647344353101167,49.44186836723203,6699793.959023471
7.499999999999989,1.9832366800181165,187.73790195976224,1.7248362443166725,50.13980473160389,6696516.15512072
7.599999999999989,2.1636131149489914,192.82175622172207,1.8037643493087476,50.838542619598336,6693238.355289013
7.699999999999989,2.3520231814651096,197.97556460152745,1.88410066516118,51.538083798053805,6689960.559584416
7.799999999999988,2.5486047797474196,203.19940761961286,1.9658159828230986,52.238430180854046,6686682.768045337
7.899999999999988,2.753492771461536,208.49336600259977,2.0488799171411634,52.939583829869285,6683404.980692372
7.999999999999988,2.9668188652753966,213.8575206981453,2.1332609381386063,53.64154695545533,6680127.19752823
8.099999999999987,3.18871150562636,219.291952889796,2.218926403509632,54.34432191650695,6676849.418537737
8.199999999999987,3.4192957648560105,224.79674401180233,2.305842592296504,55.04791122006336,6673571.643687902
8.299999999999986,3.658693238827559,230.3719757638489,2.3939747397154876,55.752317520465546,6670293.872928072
8.399999999999986,3.907021946137233,236.01773012565553,2.4832870730967387,56.45754361806644,6667016.106190146
8.499999999999986,4.164396231027448,241.73408937140525,2.5737428489021528,57.16359245749701,6663738.343388878
8.599999999999985,4.430926670105866,247.5211360839545,2.6653043907841862,57.870467125492674,6660460.584422236
8.699999999999985,4.706719982970634,253.3789531687831,2.7579331286476845,58.57817084828622,6657182.829171844
8.799999999999985,4.9918789468382165,259.3076238676406,2.8515896386758257,59.28670698857497,6653905.077503482
8.899999999999984,5.286502315266257,265.30723177184774,2.9462336842804047,59.996079042071514,6650627.32926766
8.999999999999984,5.590684741059841,271.37786083521263,3.041824257935832,60.70629063364885,6647349.5843002545
9.099999999999984,5.904516703445383,277.51959538652187,3.1383196238554243,61.4173455130923,6644071.842423202
9.199999999999983,6.2280844395921635,283.73252014156907,3.2356773614678023,62.129247550472,6640794.103445255
9.299999999999983,6.561469880557212,290.0167202146842,3.3338544096504807,62.8420007311511,6637516.367162798
9.399999999999983,6.904750591724919,296.37228112972883,3.432807111677066,63.55560915044627,6634238.6333607
9.499999999999982,7.257999717808301,302.79928883052463,3.5324912608338224,64.2700770079582,6630960.901813237
9.599999999999982,7.621285932474377,309.2978296906838,3.632862146660764,64.98540860159126,6627683.172285041
9.699999999999982,7.994673392651564,315.867990522812,3.7338746017718702,65.70160832128214,6624405.444532099
9.799999999999981,8.378221697572412,322.5098585870579,3.8354830492084817,66.41868064245895,6621127.718302788
9.89999999999998,8.771985852600356,329.2235215989832,3.937641550279436,67.13663011925269,6617849.993338941
9.99999999999998,9.176016237884461,336.0090677367316,4.0403038528410615,67.85546137748406,6614572.269376937
10.09999999999998,9.59035858188143,342.86658564747654,4.143423439969698,68.57517910744964,6611294.546148827
10.19999999999998,10.015053939779335,349.7961644531297,4.24695357897905,69.29578805653153,6608016.823383462
10.29999999999998,10.450138676852765,356.79789375529526,4.350847370734296,70.0172930216559,6604739.100807647
10.399999999999979,10.895644456774223,363.87186363945784,4.455057799214583,70.73969884162567,6601461.378147303
10.499999999999979,11.351598234901745,371.0181646783932,4.55953778127523,71.46301038935356,6598183.655128628
10.599999999999978,11.818022256557818,378.23688793479533,4.664240216560718,72.18723256402154,6594905.931479261
10.699999999999978,12.29493406030975,385.52812496311464,4.769118037519326,72.91237028319325,6591628.206929445
10.799999999999978,12.782346486256758,392.8919678106052,4.874124259470079,73.63842847490587,6588350.481213169
10.899999999999977,13.280267689324011,400.328509017582,4.9792120306725405,74.36541206976788,6585072.754069306
10.999999999999977,13.788701157558995,407.83784161689096,5.084334682349836,75.09332599308927,6581795.025242726
11.099999999999977,14.30764573542052,415.42005913259794,5.189445778615252,75.82217515707009,6578517.294485387
11.199999999999976,14.837095652045786,423.0752555779053,5.294499166252657,76.55196445307344,6575239.561557393
11.299999999999976,15.37704055447589,430.8035254523061,5.399449024301035,77.28269874400803,6571961.826228022
11.399999999999975,15.927465545815231,438.6049637379906,5.5042499133934015,78.01438285684542,6568684.088276718
11.499999999999975,16.48835122829528,446.4796658955202,5.60885682480047,78.74702157529589,6565406.347494039
11.599999999999975,17.05967375120823,454.4277278587869,5.713225229129504,79.48061963266673,6562128.603682556
11.699999999999974,17.641404863671127,462.44924602927944,5.8173111246289695,80.21518170492536,6558850.856657709
11.799999999999974,18.233511972176103,470.54431726967834,5.921071085049745,80.95071240398927,6555573.106248603
11.899999999999974,18.835958202877492,478.7130388968047,6.024462307013902,81.68721627126345,6552295.352298755
11.999999999999973,19.448702468561724,486.95550867394917,6.1274426568422955,82.42469777144497,6549017.594666772
12.099999999999973,20.071699540240978,495.2718248026105,6.2299707167925575,83.16316128661346,6545739.833226972
12.199999999999973,20.704900123306917,503.66208591367297,6.332005830659391,83.90261111062459,6542462.067869945
12.299999999999972,21.348250938175866,512.1263910580552,6.433508148689497,84.64305144382276,6539184.298503033
12.399999999999972,22.001694805352255,520.664839696864,6.534438671763891,85.38448638808761,6535906.525050747
12.499999999999972,22.66517073483234,529.2775316910868,6.634759294800861,86.12691994222766,6532628.747455119
12.599999999999971,23.338614019765675,537.96456729086,6.734432849333359,86.87035599773284,6529350.965675969
12.69999999999997,24.021956334287196,546.7260471243496,6.833423145215227,87.61479833489638,6526073.179691103
12.79999999999997,24.715125835428324,555.5620721862811,6.931695011411262,88.36025061931457,6522795.38949644
12.89999999999997,25.41804726901101,564.4727438261582,7.029214335826853,89.10671639877194,6519517.595106055
12.99999999999997,26.130642079424376,573.4581637362099,7.125948104133662,89.85419910051706,6516239.7965521505
13.09999999999997,26.852828523179234,582.5184339391033,7.221864437548587,90.60270202893332,6512961.993884953
13.199999999999969,27.58452178613165,591.6536567754639,7.316932629524152,91.35222836360668,6509684.187172529
13.299999999999969,28.325634104262583,600.863934891243,7.411123181309326,92.10278115779145,6506406.376500532
13.399999999999968,29.07607488789666,610.1493712249703,7.504407836340753,92.85436333727287,6503128.561971868
13.499999999999968,29.8357508492392,619.5100689949327,7.596759613425399,93.60697769962412,6499850.743706299
13.599999999999968,30.604566133106868,628.946131686318,7.688152838676668,94.36062691385362,6496572.921839962
13.699999999999967,31.382422450723585,638.4576630383617,7.77856317616717,95.11531352043669,6493295.09652483
13.799999999999967,32.16921921644983,648.0447670315342,7.867967657262507,95.87103993172444,6490017.2679281
13.899999999999967,32.96485368731,657.7075478748063,7.956344708601668,96.62780843272104,6486739.436231519
13.999999999999966,33.769221105179085,667.4461099930282,8.04367417869089,97.38562118221897,6483461.601630646
14.099999999999966,34.582214841487,677.2605580144563,8.1299373630792,98.14448021428056,6480183.7643340565
14.199999999999966,35.40372654429552,687.1509967584615,8.215117028085198,98.90438744005277,6476905.924562492
14.299999999999965,36.23364628760014,697.1175312234516,8.299197433046125,99.66534464990063,6473628.082547959
14.399999999999965,37.07186272270631,707.160266575036,8.382164351061673,100.42735351584383,6470350.238532771
14.499999999999964,37.918263231526964,717.2793081344639,8.464005088206575,101.19041559427944,6467072.392768561
14.599999999999964,38.772734081645716,727.4747613673612,8.544708501187534,101.9545323289729,6463794.545515239
14.699999999999964,39.635160582987886,737.7467318727911,8.624265013421702,102.71970505429832,6460516.697039925
14.799999999999963,40.50542724593944,748.0953253726619,8.702666629515514,103.48593499870806,6457238.847615839
14.899999999999963,41.38341794075188,758.520647701503,8.779906948124435,104.253223288411,6453960.997521177
14.999999999999963,42.26901605806947,769.0228047966268,8.855981173175824,105.02157095123785,6450683.147037955
15.099999999999962,43.16210467041336,779.6019026886939,8.930886123438935,105.79097892067153,6447405.296450838
15.199999999999962,44.062566694456144,790.2580474926959,9.004620240427808,106.56144804001977,6444127.446045961
15.299999999999962,44.97028505391861,800.9913453993667,9.077183594624646,107.3329790667068,6440849.596109733
15.399999999999961,45.88514284291992,811.8019026670328,9.14857789001307,108.10557267666088,6437571.746927649
15.499999999999961,46.807023489611176,822.6898256139101,9.218806466912536,108.87922946877369,6434293.898783094
15.59999999999996,47.73581091992188,833.6552206108508,9.287874303107026,109.65394996940782,6431016.0519561665
15.69999999999996,48.67138972124819,844.6981940745437,9.355788013263046,110.4297346369287,6427738.206722499
15.79999999999996,49.61364530591157,855.8188524611675,9.422555846633815,111.206583866237,6424460.36335211
15.89999999999996,50.562464074216415,867.0173022604953,9.488187683048482,111.98449799327798,6421182.522108268
15.99999999999996,51.51773357693512,878.2936499904457,9.55269502718707,112.76347729950479,6417904.68324639
16.09999999999996,52.4793426770495,889.6480021920729,9.616091001143788,113.54352201627246,6414626.847012962
16.19999999999996,53.44718171057782,901.080465424987,9.678390335283234,114.32463232914084,6411349.013644505
16.29999999999996,54.42114264631741,912.5911462631934,9.739609357395935,115.10680838206433,6408071.183366576
16.399999999999963,55.40111924433357,924.1801512913382,9.799765980161549,115.89005028144771,6404793.356392814
16.499999999999964,56.387007213026564,935.847587101343,9.858879686929958,116.67435810004797,6401515.532924035
16.599999999999966,57.378704364609796,947.5935602894133,9.91697151583233,117.45973188070279,6398237.7131473785
16.699999999999967,58.376110768833406,959.4181774534001,9.9740640422361,118.24617163986763,6394959.897235514
16.79999999999997,59.37912890478937,971.3215451904945,10.030181359559654,119.03367737094422,6391682.085345899
16.89999999999997,60.3876638106358,983.303770095233,10.08534905846431,119.8222490473846,6388404.277620107
16.99999999999997,61.401623231080094,995.3649587577886,10.139594204442973,120.61188662555602,6385126.474183219
17.099999999999973,62.42091776246276,1007.5052177625239,10.192945313826643,121.40259004735329,6381848.675143275
17.199999999999974,63.44546099528592,1019.7246536867785,10.245432328231637,122.19435924254668,6378570.880590812
17.299999999999976,64.47516965403314,1032.023373099864,10.297086587472144,122.98719413085487,6375293.090598457
17.399999999999977,65.50996373412957,1044.4014825622376,10.347940800964375,123.78109462373381,6372015.305220603
17.49999999999998,66.5497666358946,1056.859088624825,10.398029017650218,124.57606062587409,6368737.524493164
17.59999999999998,67.59450529534159,1069.396297828465,10.447386594469922,125.37209203640096,6365459.748433395
17.69999999999998,68.64411031168308,1082.0132167034424,10.496050163414889,126.16918874977254,6362181.977039799
17.799999999999983,69.6985160714024,1094.7099517690797,10.544057597193204,126.96735065637382,6358904.2102921065
17.899999999999984,70.75766086875659,1107.4866095333603,10.591447973541989,127.76657764280519,6355626.448151338
17.999999999999986,71.82148702257881,1120.3432964925469,10.638261538222164,128.56686959186635,6352348.690559938
