t[s],x[m],y[m],vx[m/s],vy[m/s],mass[kg]
0.1,-0.00011772322224231676,1.564874216105791,-0.0011772322224231676,0.6487421610579092,9087109.213130837
0.2,-0.0003532020143403574,1.6947000980916016,-0.002354787920980406,1.2982588198581069,9082792.045994567
0.30000000000000004,-0.0007058520626459556,1.88955518539534,-0.003526500483055981,1.9485508730373842,9078474.878874544
0.4,-0.0011744805177067012,2.1495171072698875,-0.004686284550607457,2.599619218745474,9074157.711769687
0.5,-0.0017572826300444294,2.474663582950809,-0.0058280211233772816,3.2514647568092165,9069840.5446789
0.6,-0.0024518385444548415,2.8650724218176586,-0.0069455591441041215,3.904088388668497,9065523.37760107
0.7,-0.003255110269049336,3.3208215235487475,-0.008032717245944947,4.557491017310889,9061206.210535066
0.7999999999999999,-0.004163438820160884,3.8419888782692886,-0.00908328551111548,5.21167354720541,9056889.043479748
0.8999999999999999,-0.005172541544196475,4.428652566692835,-0.010091027240355915,5.866636884235465,9052571.876433961
0.9999999999999999,-0.00627750961747971,5.080890760255945,-0.01104968073283235,6.522381935631103,9048254.709396541
1.0999999999999999,-0.007472805725087938,5.798781721246012,-0.011952961076082277,7.178909609900663,9043937.542366313
1.2,-0.008752261919648875,6.582403802922206,-0.012794561945609373,7.836220816761943,9039620.375342093
1.3,-0.0101090776610222,7.431835449629502,-0.013568157413733245,8.494316467072956,9035303.208322693
1.4000000000000001,-0.01153581803775179,8.347155196905744,-0.01426740376729589,9.153197472762415,9030986.041306918
1.5000000000000002,-0.013024412171134645,9.328441671581746,-0.014885941333828564,9.812864746760031,9026668.874293573
1.6000000000000003,-0.014566151802712252,10.37577359187442,-0.015417396315776061,10.473319202926744,9022351.707281455
1.7000000000000004,-0.016151690065949964,11.489229767472919,-0.01585538263237713,11.13456175598498,9018034.540269364
1.8000000000000005,-0.01777104044282956,12.668889099617825,-0.016193503768795962,11.796593321449059,9013717.3732561
1.9000000000000006,-0.01941357590603922,13.91483058117341,-0.01642535463209663,12.459414815555853,9009400.206240466
2.0000000000000004,-0.021068028247404395,15.22713329669299,-0.016544523413651736,13.1230271551958,9005083.039221266
2.1000000000000005,-0.02272248759316154,16.60587642247743,-0.016544593457571474,13.787431257844398,9000765.872197311
2.2000000000000006,-0.024364402106635288,18.05113922662686,-0.016419145134737485,14.452628041494275,8996448.705167418
2.3000000000000007,-0.025980577878837684,19.563001069085654,-0.016161757722023974,15.11861842458795,8992131.538130414
2.400000000000001,-0.027557179007465946,21.141541401680794,-0.01576601128628263,15.785403325951393,8987814.37108513
2.500000000000001,-0.029079727864732605,22.786839768153644,-0.015225488572666588,16.452983664728496,8983497.204030411
2.600000000000001,-0.03053310555441904,24.4989758041853,-0.014533776896864343,17.12136036031657,8979180.036965117
2.700000000000001,-0.031901552558500045,26.278029237415595,-0.013684470040810052,17.790534332302954,8974862.869888116
2.800000000000001,-0.03316866957364343,28.124079887455885,-0.012671170151433878,18.460506500402886,8970545.702798294
2.9000000000000012,-0.034317418537844625,30.037207665895753,-0.011487489642011945,19.131277784398677,8966228.535694553
3.0000000000000013,-0.03533012384741145,32.017492576303795,-0.010127053095668293,19.802849104080384,8961911.36857581
3.1000000000000014,-0.03618847376446949,34.06501471422259,-0.008583499170580421,20.475221379187992,8957594.201441003
3.2000000000000015,-0.0368735220151128,36.17985426715812,-0.006850482506433064,21.148395529355295,8953277.03428909
3.3000000000000016,-0.03736568957827887,38.36209151456367,-0.004921675631660717,21.822372474055502,8948959.86711905
3.4000000000000017,-0.03764476666538021,40.61180682781855,-0.0027907708710134594,22.497153132548746,8944642.699929882
3.5000000000000018,-0.03768991489067775,42.9290806702017,-0.0004514822529754275,23.17273842383152,8940325.532720612
3.600000000000002,-0.037479669632334,45.31399359686052,0.002102452583437521,23.849129266588214,8936008.36549029
3.700000000000002,-0.036991942584035375,47.766626254775,0.004877270482986207,24.52632657914477,8931691.19823799
3.800000000000002,-0.036204024497024714,50.28705938271746,0.007879180870106611,25.204331279424622,8927374.030962812
3.900000000000002,-0.03509258811233541,52.875373811208156,0.011114363846893013,25.88314428490699,8923056.86366389
4.000000000000002,-0.03363369128296879,55.531650462466914,0.014588968293666257,26.562766512587572,8918739.69634038
4.100000000000001,-0.031802780285705635,58.255970350361096,0.018309109972631552,27.2431988789418,8914422.528991472
4.200000000000001,-0.029574693322191644,61.04841458035017,0.02228086963513992,27.924442299890696,8910105.361616384
4.300000000000001,-0.026923664208884406,63.90906434942711,0.026510291133072378,28.606497690769416,8905788.194214368
4.4,-0.02382332625539719,66.83800094605697,0.03100337953487219,29.289365966298586,8901471.026784709
4.5,-0.02024671633072108,69.83530575011281,0.035766099246761066,29.973048040558474,8897153.859326724
4.6,-0.016166279116753345,72.90106023280941,0.04080437213967735,30.657544826966113,8892836.691839764
4.699999999999999,-0.011553871548504749,76.03534595663496,0.04612407568248595,31.342857238255398,8888519.524323214
4.799999999999999,-0.006380767440303189,79.23824457528099,0.0517310410820156,32.02898618646028,8884202.356776496
4.899999999999999,-0.0006176622972545367,82.5098378335711,0.05763105143048652,32.71593258290108,8879885.189199068
4.999999999999998,0.00576532168883547,85.8502075673885,0.06382983986090006,33.40369733817401,8875568.021590423
5.099999999999998,0.012798630459932544,89.25943570360289,0.07033308771097073,34.09228136214394,8871250.853950094
5.1999999999999975,0.020513272729551106,92.73760425999694,0.07714642269618564,34.781685563940485,8866933.68627765
5.299999999999997,0.028940814438810067,96.28479534519269,0.08427541709258958,35.471910851957446,8862616.5185727
5.399999999999997,0.038113373031799916,99.90109115857825,0.09172558592989849,36.16295813385569,8858299.350834886
5.4999999999999964,0.04806361155135536,103.5865739902352,0.09950238519555447,36.85482831656945,8853982.183063893
5.599999999999996,0.0588247325563897,107.3413262208668,0.10761121005034337,37.547522306316154,8849665.015259445
5.699999999999996,0.0704304718620101,111.16543032172778,0.11605739305620397,38.24104100860973,8845347.847421305
5.799999999999995,0.08291509210369706,115.05896885455553,0.12484620241686961,38.93538532827755,8841030.679549275
5.899999999999995,0.09631337612689572,119.02202447150361,0.1339828402319866,39.6305561694809,8836713.511643194
5.999999999999995,0.11066062020343254,123.05467991507753,0.14347244076536816,40.32655443573909,8832396.343702944
6.099999999999994,0.12599262707623726,127.15701801807325,0.1533200687280473,41.02338102995721,8828079.175728446
6.199999999999994,0.14234569883391776,131.329121703519,0.1635307175768051,41.72103685445749,8823762.00771966
6.299999999999994,0.15975662961680326,135.57107398462045,0.17410930782885492,42.419522811014346,8819444.839676585
6.399999999999993,0.17826269815614093,139.88295796470976,0.1850606853933766,43.118839800893085,8815127.671599258
6.499999999999993,0.1979016601482011,144.26485683719898,0.1963896199206015,43.818988724892264,8810810.503487756
6.5999999999999925,0.21871174046511688,148.71685388553794,0.20810080316915786,44.5199704833897,8806493.335342199
6.699999999999992,0.24073162520435662,153.23903248317717,0.22019884739239745,45.22178597639212,8802176.167162737
6.799999999999992,0.26400045357879964,157.83147609353603,0.23268828374443007,45.92443610358848,8797858.998949565
6.8999999999999915,0.2885578096494601,162.49426826997671,0.24557356070660438,46.62792176440684,8793541.830702912
6.999999999999991,0.31444371390297815,167.2274926557842,0.25885904253518066,47.3322438580749,8789224.662423046
7.099999999999991,0.34169861467607315,172.0312329841526,0.2725490077309502,48.03740328368399,8784907.494110271
7.19999999999999,0.3703633794292297,176.9055730781783,0.2866476475315653,48.74340094025673,8780590.325764926
7.29999999999999,0.40047928587196496,181.8505968508601,0.30115906442735263,49.450237726818,8776273.157387387
7.39999999999999,0.4320880129421039,186.86638830510705,0.31608727070138976,50.157914542469555,8771955.988978064
7.499999999999989,0.4652316316415674,191.95303153375383,0.3314361869946348,50.86643228646783,8767638.820537401
7.599999999999989,0.499952595731258,197.11061071958434,0.34720964089690604,51.57579185830523,8763321.652065877
7.699999999999989,0.5362937322877097,202.3392101353638,0.36341136556451703,52.28599415779466,8759004.483564
7.799999999999988,0.5742982321242478,207.63891414387953,0.3800449983653813,52.99704008515722,8754687.315032315
7.899999999999988,0.6140096400794884,213.00980719799085,0.3971140795524059,53.70893054111309,8750370.14647139
7.999999999999988,0.6554718451760888,218.4519738406884,0.4146220509660042,54.42166642697552,8746052.97788183
8.099999999999987,0.698729070652745,223.96549870516316,0.43257225476656186,55.135248644747726,8741735.809264267
8.199999999999987,0.7438258638725149,229.55046651488544,0.4509679321976992,55.849678097222764,8737418.640619358
8.299999999999986,0.7908070861106329,235.20696208369407,0.46981222238117903,56.56495568808617,8733101.471947791
8.399999999999986,0.8397179022250645,240.9350703158962,0.48910816114431577,57.28108232202138,8728784.303250277
8.499999999999986,0.8906037702131392,246.73487620637798,0.508858679880747,57.99805890481772,8724467.134527555
8.599999999999985,0.9435104306576827,252.60646484072606,0.5290666044454345,58.715886343480925,8720149.965780381
8.699999999999985,0.9984838960661596,258.5499213953607,0.5497346540847693,59.43456554634613,8715832.797009539
8.799999999999985,1.055570440106425,264.56533113768,0.5708654404026546,60.15409742319306,8711515.628215833
8.899999999999984,1.1148165867427702,270.65277942621634,0.5924614663634525,60.87448288536348,8707198.459400086
8.999999999999984,1.176269099276038,276.8123517108044,0.6145251253326784,61.59572284588065,8702881.29056314
9.099999999999984,1.2399749692916715,283.0441335327615,0.6370587001563335,62.317818219570775,8698564.121705854
9.199999999999983,1.3059814055196484,289.34821052508016,0.660064362279769,63.04076992318616,8694246.952829104
9.299999999999983,1.3743358226103461,295.72466841263315,0.683544170906977,63.76457887553013,8689929.783933781
9.399999999999983,1.445085829830467,302.1735930123915,0.7075000722012076,64.4892459975834,8685612.615020787
9.499999999999982,1.518279219683248,308.6950702336547,0.7319338985278093,65.21477221263187,8681295.44609104
9.599999999999982,1.5939639564572676,315.2891860782943,0.756847367740196,65.94115844639568,8676978.277145464
9.699999999999982,1.6721881647082517,321.9560266410102,0.7822420825098398,66.66840562715922,8672661.108184997
9.799999999999981,1.753000117678371,328.69567810960046,0.808119529701192,67.39651468590228,8668343.939210583
9.89999999999998,1.8364482256576142,335.50822676524365,0.8344810797924318,68.12548655643178,8664026.77022317
9.99999999999998,1.9225810242919084,342.3937589827951,0.8613279863429416,68.85532217551425,8659709.601223717
10.09999999999998,2.011447162842749,349.3523612310959,0.8886613855084061,69.58602248300863,8655392.43221318
10.19999999999998,2.103095392403192,356.3841200732959,0.9164822956044295,70.31758842199955,8651075.263192521
10.29999999999998,2.197574554075148,363.48912216718895,0.9447916167195586,71.05002093893047,8646758.094162706
10.399999999999979,2.294933567113008,370.66745426556264,0.9735901303786011,71.78332098373703,8642440.925124696
10.499999999999979,2.39522141703872,377.9192032165606,1.0028784992571187,72.51748950997992,8638123.756079448
10.599999999999978,2.4984871437335165,385.2444559640584,1.032657266947968,73.25252747497758,8633806.587027924
10.699999999999978,2.6047798295115925,392.6432995480522,1.0629268577807598,73.98843583993812,8629489.417971075
10.799999999999978,2.714148587181102,400.1158211050613,1.093687576695098,74.72521557009061,8625172.248909848
10.899999999999977,2.8266425480979467,407.6621078685428,1.1249396091684458,75.46286763481535,8620855.079845183
10.999999999999977,2.9423108502178934,415.28224716932016,1.1566830211994659,76.2013930077731,8616537.91077801
11.099999999999977,3.06120262615266,422.97632643602344,1.1889177593476654,76.9407926670329,8612220.741709251
11.199999999999976,3.1833669912356766,430.7444331955433,1.2216436508301654,77.68106759519846,8607903.572639817
11.299999999999976,3.308853031603317,438.5866550734966,1.2548604036764044,78.42221877953293,8603586.403570605
11.399999999999975,3.4377097922974738,446.5030797947048,1.2885676069415704,79.16424721208169,8599269.2345025
11.499999999999975,3.569986265395428,454.4937951836841,1.3227647309795425,79.90715388979321,8594952.065436369
11.599999999999975,3.7057313781730388,462.55888916514783,1.3574511277761072,80.6509398146376,8590634.896373067
11.699999999999974,3.8449939813073586,470.6984497645201,1.3926260313431975,81.39560599372284,8586317.72731343
11.799999999999974,3.987822837124847,478.9125651084609,1.4282885581748856,82.14115343940837,8582000.558258273
11.899999999999974,4.134266607901432,487.2013234254025,1.4644377077658433,82.88758316941589,8577683.389208397
11.999999999999973,4.2843738442207275,495.5648130460962,1.5010723631929583,83.63489620693727,8573366.22016458
12.099999999999973,4.438192973396806,504.00312240417014,1.538191291760784,84.38309358073928,8569049.051127579
12.199999999999973,4.595772287967952,512.5163400366966,1.5757931457114636,85.13217632526509,8564731.882098127
12.299999999999972,4.757159934267928,521.1045545847699,1.6138764629997606,85.88214548073215,8560414.713076934
12.399999999999972,4.9224039010813065,529.7678547940925,1.6524396681337934,86.6330020932266,8556097.54406469
12.499999999999972,5.091552008389511,538.5063295155719,1.6914810730820466,87.38474721479373,8551780.375062052
12.599999999999971,5.264651896214232,547.3200677059243,1.7309988782472112,88.13738190352454,8547463.20606966
12.69999999999997,5.441751013564969,556.2091584282881,1.7709911735073673,88.89090722363807,8543146.037088118
12.79999999999997,5.622896607497469,565.1736908528441,1.8114559393250018,89.6453242455595,8538828.868118014
12.89999999999997,5.808135712289901,574.2137542574434,1.852391047924315,90.40063404599375,8534511.699159898
12.99999999999997,5.997515138743625,583.3294380282429,1.8937942645372454,91.15683770799453,8530194.530214297
13.09999999999997,6.191081463615485,592.5208316603457,1.9356632487186007,91.91393632102852,8525877.361281706
13.199999999999969,6.388881019188551,601.7880247584492,1.9779955557306526,92.67193098103473,8521560.192362592
13.299999999999969,6.590959882988302,611.131107037497,2.0207886379975117,93.43082279047887,8517243.023457393
13.399999999999968,6.797363867651259,620.5501683233373,2.0640398466295693,94.1906128584024,8512925.854566514
13.499999999999968,7.008138510953083,630.045298553384,2.1077464330182414,94.95130230046644,8508608.685690332
13.599999999999968,7.223329066003205,639.616587777283,2.151905550501221,95.71289223899015,8504291.51682919
13.699999999999967,7.442980491613045,649.2641261575814,2.1965142560983955,96.47538380298366,8499974.347983405
13.799999999999967,7.667137442844899,658.9880039703988,2.2415695123185437,97.23877812817531,8495657.179153254
13.899999999999967,7.8958442617485876,668.7883116061022,2.2870681890368845,98.00307635703317,8491340.010338992
13.999999999999966,8.129144968292938,678.6651395699803,2.3330070654435,98.76827963878067,8487022.841540834
14.099999999999966,8.367083251499198,688.618578482921,2.3793828320626056,99.53438912940638,8482705.67275897
14.199999999999966,8.609702460783458,698.6487190820877,2.4261920928426037,100.30140599166769,8478388.503993556
14.299999999999965,8.857045597515137,708.7556522215966,2.4734313673167847,101.0693313950885,8474071.335244713
14.399999999999965,9.109155306798588,718.9394688731917,2.521097092834506,101.83816651595062,8469754.166512538
14.499999999999964,9.36607386948485,729.2002601269196,2.5691856268626188,102.60791253727908,8465436.99779709
14.599999999999964,9.627843194420537,739.5381171918017,2.6176932493568588,103.37857064882108,8461119.829098402
14.699999999999964,9.894504810940823,749.9531313965035,2.6666161652028566,104.15014204701868,8456802.660416473
14.799999999999963,10.16609986161346,760.445394190001,2.7159505067263745,104.92262793497504,8452485.491751274
14.899999999999963,10.442669095240692,771.0149971422425,2.7656923362723083,105.69602952241443,8448168.323102748
14.999999999999963,10.724252860125887,781.662031944806,2.8158376488519394,106.47034802563567,8443851.154470805
15.099999999999962,11.010891097611673,792.386590411552,2.8663823748578587,107.24558466745921,8439533.985855328
15.199999999999962,11.302623335896264,803.1887644792688,2.9173223828459176,108.02174067716783,8435216.817256171
15.299999999999962,11.599488684134615,814.0686462083129,2.9686534823835036,108.7988172904408,8430899.648673162
15.399999999999961,11.901525826830952,825.0263277832411,3.020371426963368,109.57681574928176,8426582.480106102
15.499999999999961,12.208773018529168,836.061901513435,3.072471916982168,110.35573730194012,8422265.311554765
15.59999999999996,12.52126807880745,847.1754598337177,3.1249506027828198,111.13558320282607,8417948.1430189
15.69999999999996,12.83904838758342,858.3670953049597,3.1778030877596866,111.91635471241932,8413630.97449823
15.79999999999996,13.162150880735975,869.6369006146768,3.2310249315255586,112.69805309717152,8409313.805992454
15.89999999999996,13.490612046049907,880.9849685776171,3.284611653139314,113.48067962940249,8404996.637501253
15.99999999999996,13.824467919489214,892.4113921363361,3.338558734393068,114.26423558719017,8400679.46902428
16.09999999999996,14.163754081804969,903.9162643617616,3.3928616231575552,115.0487222542546,8396362.300561171
16.19999999999996,14.508505655483411,915.4996784537452,3.4475157367844136,115.83414091983575,8392045.132111538
16.29999999999996,14.858757302039807,927.1617277416018,3.50251646556396,116.6204928785655,8387727.963674977
16.399999999999963,15.214543219663504,938.9025056846351,3.5578591762369727,117.40777943033373,8383410.795251065
16.499999999999964,15.575897141219397,950.72210587265,3.61353921555893,118.1960018801487,8379093.626839361
16.599999999999966,15.942852332610903,962.6206220264492,3.66955191391506,118.9851615379917,8374776.458439408
16.699999999999967,16.31544159150935,974.5981479983158,3.7258925889844936,119.7752597186663,8370459.290050734
16.79999999999997,16.693697246454526,986.65477777248,3.7825565494517353,120.56629774164215,8366142.121672854
16.89999999999997,17.077651156330884,998.7906054655693,3.8395390987635705,121.35827693089344,8361824.95330527
16.99999999999997,17.46733471022383,1011.0057253270426,3.896835538929473,122.15119861473242,8357507.784947471
17.099999999999973,17.86277882766018,1023.3002317396064,3.9544411743634815,122.94506412563774,8353190.616598936
17.199999999999974,18.264013959236724,1035.674219219614,4.012351315765442,123.73987480007808,8348873.448259136
17.299999999999976,18.67107008764067,1048.1277824174472,4.070561284039425,124.53563197833105,8344556.279927531
17.399999999999977,19.083976729065373,1060.661016117877,4.129066414247065,125.33233700429761,8340239.111603577
17.49999999999998,19.50276293502472,1073.274015240408,4.1878620595934635,126.12999122531217,8335921.943286721
17.59999999999998,19.927457294569045,1085.966874839603,4.246943595443249,126.92859599194844,8331604.774976407
17.69999999999998,20.358087936905473,1098.739690105385,4.30630642336428,127.72815265782143,8327287.606672076
17.799999999999983,20.794682534425114,1111.5925563633236,4.365945975196414,128.52866257938553,8322970.438373162
17.899999999999984,21.237268306139384,1124.5255690748966,4.4258577171426925,129.330127115729,8318653.270079104
