time[s],x[m],y[m],vx[m/s],vy[m/s],theta[rad],theta_dot[rad/s],alpha[rad],mass[kg],gimbalangle[deg],nonnominalthrottle[0-1],u0,u1
0.1,-0.00011772322224231676,1.564874216105791,-0.0011772322224231676,0.6487421610579092,1.5707928606794475,-3.466115449145759e-05,-0.0018181021926424457,9087109.213130837,0.11176839364077364,1.0,0.22353678728154727,1.0
0.2,-0.0003532020143403574,1.6947000980916016,-0.002354787920980406,1.2982588198581069,1.57078591165949,-6.94901995753664e-05,-0.0018242178245451157,9082792.045994567,0.11228324992104302,1.0,0.22456649984208604,1.0
0.30000000000000004,-0.0007058520626459556,1.88955518539534,-0.003526500483055981,1.9485508730373842,1.5707754643320249,-0.00010447327465172506,-0.0018306672165617766,9078474.878874544,0.1127540866725518,1.0,0.22550817334510356,1.0
0.4,-0.0011744805177067012,2.1495171072698875,-0.004686284550607457,2.599619218745474,1.5707615043427394,-0.00013959989285457984,-0.0018375016447671477,9074157.711769687,0.11319185532061722,1.0,0.22638371064123441,1.0
0.5,-0.0017572826300444294,2.474663582950809,-0.0058280211233772816,3.2514647568092165,1.5707440183906392,-0.00017485952100137358,-0.001844735915506046,9069840.5446789,0.11359644587706293,1.0,0.22719289175412585,1.0
0.6,-0.0024518385444548415,2.8650724218176586,-0.0069455591441041215,3.904088388668497,1.570722994232827,-0.0002102415781260528,-0.0018523783020916174,9065523.37760107,0.11396774496152202,1.0,0.22793548992304405,1.0
0.7,-0.003255110269049336,3.3208215235487475,-0.008032717245944947,4.557491017310889,1.5706984206889814,-0.00024573543845291706,-0.0018604348520023795,9061206.210535066,0.11430565013727204,1.0,0.22861130027454407,1.0
0.7999999999999999,-0.004163438820160884,3.8419888782692886,-0.00908328551111548,5.21167354720541,1.5706702876455434,-0.0002813304343781865,-0.0018689104615543517,9056889.043479748,0.11461006995213413,1.0,0.22922013990426826,1.0
0.8999999999999999,-0.005172541544196475,4.428652566692835,-0.010091027240355915,5.866636884235465,1.5706385860595977,-0.00031701585945944884,-0.0018778092323927797,9052571.876433961,0.11488092397615482,1.0,0.22976184795230964,1.0
0.9999999999999999,-0.00627750961747971,5.080890760255945,-0.01104968073283235,6.522381935631103,1.5706033079624562,-0.00035278097141321226,-0.0018871346126740907,9048254.709396541,0.11511814283621234,1.0,0.23023628567242468,1.0
1.0999999999999999,-0.007472805725087938,5.798781721246012,-0.011952961076082277,7.178909609900663,1.570564446462944,-0.00038861499512078603,-0.0018968894600854824,9043937.542366313,0.11532166824747207,1.0,0.23064333649494415,1.0
1.2,-0.008752261919648875,6.582403802922206,-0.012794561945609373,7.836220816761943,1.57052199575038,-0.00042450712564272037,-0.0019070760724198,9039620.375342093,0.11549145304166744,1.0,0.23098290608333488,1.0
1.3,-0.0101090776610222,7.431835449629502,-0.013568157413733245,8.494316467072956,1.570475951097256,-0.0004604465312420686,-0.0019176962032887435,9035303.208322693,0.11562746119224837,1.0,0.23125492238449674,1.0
1.4000000000000001,-0.01153581803775179,8.347155196905744,-0.01426740376729589,9.153197472762415,1.5704263088616137,-0.0004964223564167356,-0.0019287510705083832,9030986.041306918,0.11572966783635084,1.0,0.2314593356727017,1.0
1.5000000000000002,-0.013024412171134645,9.328441671581746,-0.014885941333828564,9.812864746760031,1.5703730664891196,-0.0005324237249412008,-0.0019402413606799396,9026668.874293573,0.11579805929362245,1.0,0.2315961185872449,1.0
1.6000000000000003,-0.014566151802712252,10.37577359187442,-0.015417396315776061,10.473319202926744,1.570316222514828,-0.0005684397429178952,-0.001952167231718649,9022351.707281455,0.11583263308181631,1.0,0.23166526616363262,1.0
1.7000000000000004,-0.016151690065949964,11.489229767472919,-0.01585538263237713,11.13456175598498,1.570255776564644,-0.0006044595018385505,-0.001964528314269076,9018034.540269364,0.11583339792925557,1.0,0.23166679585851113,1.0
1.8000000000000005,-0.01777104044282956,12.668889099617825,-0.016193503768795962,11.796593321449059,1.5701917293564784,-0.0006404720816558246,-0.00197732371251913,9013717.3732561,0.11580037378406902,1.0,0.23160074756813803,1.0
1.9000000000000006,-0.01941357590603922,13.91483058117341,-0.01642535463209663,12.459414815555853,1.5701240827010918,-0.0006764665538655277,-0.0019905520047176495,9009400.206240466,0.11573359182024161,1.0,0.2314671836404832,1.0
2.0000000000000004,-0.021068028247404395,15.22713329669299,-0.016544523413651736,13.1230271551958,1.5700528395026316,-0.0007124319845997722,-0.002004211243573195,9005083.039221266,0.11563309444042973,1.0,0.23126618888085945,1.0
2.1000000000000005,-0.02272248759316154,16.60587642247743,-0.016544593457571474,13.787431257844398,1.5699780037588587,-0.0007483574377313861,-0.002018298956648401,9000765.872197311,0.11549893527558863,1.0,0.23099787055117724,1.0
2.2000000000000006,-0.024364402106635288,18.05113922662686,-0.016419145134737485,14.452628041494275,1.5698995805610596,-0.000784231977989919,-0.002032812146820495,8996448.705167418,0.11533117918133258,1.0,0.23066235836266516,1.0
2.3000000000000007,-0.025980577878837684,19.563001069085654,-0.016161757722023974,15.11861842458795,1.5698175760936506,-0.0008200446740895908,-0.002047747292855062,8992131.538130414,0.11512990223109448,1.0,0.23025980446218897,1.0
2.400000000000001,-0.027557179007465946,21.141541401680794,-0.01576601128628263,15.785403325951393,1.5697319976334636,-0.0008557846018695177,-0.0020631003501256906,8987814.37108513,0.11489519170600804,1.0,0.22979038341201607,1.0
2.500000000000001,-0.029079727864732605,22.786839768153644,-0.015225488572666588,16.452983664728496,1.569642853548719,-0.0008914408474465584,-0.0020788667515012627,8983497.204030411,0.11462714608152942,1.0,0.22925429216305884,1.0
2.600000000000001,-0.03053310555441904,24.4989758041853,-0.014533776896864343,17.12136036031657,1.5695501532976812,-0.0009270025103811301,-0.0020950414084155433,8979180.036965117,0.11432587501082071,1.0,0.22865175002164143,1.0
2.700000000000001,-0.031901552558500045,26.278029237415595,-0.013684470040810052,17.790534332302954,1.569453907426995,-0.0009624587068563193,-0.0021116187121321683,8974862.869888116,0.11399149930481109,1.0,0.22798299860962218,1.0
2.800000000000001,-0.03316866957364343,28.124079887455885,-0.012671170151433878,18.460506500402886,1.569354127569708,-0.0009977985728706383,-0.0021285925352099166,8970545.702798294,0.11362415090899375,1.0,0.2272483018179875,1.0
2.9000000000000012,-0.034317418537844625,30.037207665895753,-0.011487489642011945,19.131277784398677,1.5692508264429639,-0.0010330112674447475,-0.0021459562331800353,8966228.535694553,0.11322397287692225,1.0,0.2264479457538445,1.0
3.0000000000000013,-0.03533012384741145,32.017492576303795,-0.010127053095668293,19.802849104080384,1.5691440178453797,-0.0010680859758424672,-0.0021637026464349507,8961911.36857581,0.11279111934036558,1.0,0.22558223868073116,1.0
3.1000000000000014,-0.03618847376446949,34.06501471422259,-0.008583499170580421,20.475221379187992,1.569033716654099,-0.0011030119128064015,-0.002181824102336583,8957594.201441003,0.11232575547616853,1.0,0.22465151095233707,1.0
3.2000000000000015,-0.0368735220151128,36.17985426715812,-0.006850482506433064,21.148395529355295,1.5689199388215185,-0.0011377783258084725,-0.002200312417543593,8953277.03428909,0.11182805746975627,1.0,0.22365611493951254,1.0
3.3000000000000016,-0.03736568957827887,38.36209151456367,-0.004921675631660717,21.822372474055502,1.5688027013716868,-0.0011723744983156616,-0.0022191589005651213,8948959.86711905,0.11129821247528636,1.0,0.2225964249505727,1.0
3.4000000000000017,-0.03764476666538021,40.61180682781855,-0.0027907708710134594,22.497153132548746,1.5686820223963795,-0.0012067897530712508,-0.0022383543545383407,8944642.699929882,0.1107364185724661,1.0,0.2214728371449322,1.0
3.5000000000000018,-0.03768991489067775,42.9290806702017,-0.0004514822529754275,23.17273842383152,1.5685579210508402,-0.001241013455391806,-0.002257889080236053,8940325.532720612,0.11014288471993404,1.0,0.22028576943986808,1.0
3.600000000000002,-0.037479669632334,45.31399359686052,0.002102452583437521,23.849129266588214,1.5684304175491925,-0.0012750350164801906,-0.0022777528793020974,8936008.36549029,0.1095178307053349,1.0,0.2190356614106698,1.0
3.700000000000002,-0.036991942584035375,47.766626254775,0.004877270482986207,24.52632657914477,1.568299533159517,-0.0013088438967548124,-0.002297935057721912,8931691.19823799,0.1088614870919119,1.0,0.2177229741838238,1.0
3.800000000000002,-0.036204024497024714,50.28705938271746,0.007879180870106611,25.204331279424622,1.5681652901985974,-0.001342429609195342,-0.0023184244295215706,8927374.030962812,0.1081740951617441,1.0,0.21634819032348818,1.0
3.900000000000002,-0.03509258811233541,52.875373811208156,0.011114363846893013,25.88314428490699,1.568027712026327,-0.0013757817227050867,-0.0023392093207061926,8923056.86366389,0.10745590685551779,1.0,0.21491181371103557,1.0
4.000000000000002,-0.03363369128296879,55.531650462466914,0.014588968293666257,26.562766512587572,1.567886823039778,-0.001408889865490205,-0.0023602775734317127,8918739.69634038,0.10670718470887705,1.0,0.2134143694177541,1.0
4.100000000000001,-0.031802780285705635,58.255970350361096,0.018309109972631552,27.2431988789418,1.5677426486669324,-0.0014417437284559012,-0.002381616550414245,8914422.528991472,0.10592820178530438,1.0,0.21185640357060875,1.0
4.200000000000001,-0.029574693322191644,61.04841458035017,0.02228086963513992,27.924442299890696,1.5675952153600703,-0.0014743330686197407,-0.002403213139578586,8910105.361616384,0.10511924160555051,1.0,0.21023848321110103,1.0
4.300000000000001,-0.026923664208884406,63.90906434942711,0.026510291133072378,28.606497690769416,1.567444550588816,-0.0015066477125421662,-0.0024250537589460826,8905788.194214368,0.10428059807354105,1.0,0.2085611961470821,1.0
4.4,-0.02382332625539719,66.83800094605697,0.03100337953487219,29.289365966298586,1.5672906828328388,-0.0015386775597743079,-0.002447124361764752,8901471.026784709,0.10341257539884531,1.0,0.20682515079769062,1.0
4.5,-0.02024671633072108,69.83530575011281,0.035766099246761066,29.973048040558474,1.5671336415742065,-0.0015704125863231098,-0.0024694104418780945,8897153.859326724,0.10251548801556376,1.0,0.20503097603112752,1.0
4.6,-0.016166279116753345,72.90106023280941,0.04080437213967735,30.657544826966113,1.5669734572893932,-0.0016018428481337915,-0.0024918970393401625,8892836.691839764,0.10158966049774519,1.0,0.20317932099549038,1.0
4.699999999999999,-0.011553871548504749,76.03534595663496,0.04612407568248595,31.342857238255398,1.5668101614409342,-0.0016329584845896253,-0.0025145687462733157,8888519.524323214,0.1006354274712493,1.0,0.2012708549424986,1.0
4.799999999999999,-0.006380767440303189,79.23824457528099,0.0517310410820156,32.02898618646028,1.5666437864687313,-0.0016637497220289578,-0.002537409712970895,8884202.356776496,0.09965313352202958,1.0,0.19930626704405915,1.0
4.899999999999999,-0.0006176622972545367,82.5098378335711,0.05763105143048652,32.71593258290108,1.5664743657810034,-0.0016942068772793947,-0.002560403654245924,8879885.189199068,0.09864313310089408,1.0,0.19728626620178816,1.0
4.999999999999998,0.00576532168883547,85.8502075673885,0.06382983986090006,33.40369733817401,1.5663019337448825,-0.0017243203612090057,-0.0025835338560267207,8875568.021590423,0.0976057904246401,1.0,0.1952115808492802,1.0
5.099999999999998,0.012798630459932544,89.25943570360289,0.07033308771097073,34.09228136214394,1.5661265256766532,-0.0017540806822943832,-0.002606783182200534,8871250.853950094,0.09654147937362732,1.0,0.19308295874725465,1.0
5.1999999999999975,0.020513272729551106,92.73760425999694,0.07714642269618564,34.781685563940485,1.5659481778316326,-0.001783478450205335,-0.002630134081704316,8866933.68627765,0.09545058338573092,1.0,0.19090116677146182,1.0
5.299999999999997,0.028940814438810067,96.28479534519269,0.08427541709258958,35.471910851957446,1.5657669273936916,-0.001812504379405964,-0.0026535685958659623,8862616.5185727,0.09433349534667998,1.0,0.18866699069335996,1.0
5.399999999999997,0.038113373031799916,99.90109115857825,0.09172558592989849,36.16295813385569,1.5655828124644147,-0.0018411492927718185,-0.00267706836599535,8858299.350834886,0.09319061747674813,1.0,0.18638123495349626,1.0
5.4999999999999964,0.04806361155135536,103.5865739902352,0.09950238519555447,36.85482831656945,1.5653958720518923,-0.0018694041252227797,-0.0027006146412247296,8853982.183063893,0.09202236121383163,1.0,0.18404472242766326,1.0
5.599999999999996,0.0588247325563897,107.3413262208668,0.10761121005034337,37.547522306316154,1.5652061460591555,-0.0018972599273712827,-0.002724188286601148,8849665.015259445,0.0908291470928294,1.0,0.1816582941856588,1.0
5.699999999999996,0.0704304718620101,111.16543032172778,0.11605739305620397,38.24104100860973,1.5650136752722368,-0.0019247078691854267,-0.0027477697914317645,8845347.847421305,0.0896114046214029,1.0,0.1792228092428058,1.0
5.799999999999995,0.08291509210369706,115.05896885455553,0.12484620241686961,38.93538532827755,1.5648185013478701,-0.0019517392436664773,-0.0027713392778776487,8841030.679549275,0.08836957215200454,1.0,0.17673914430400908,1.0
5.899999999999995,0.09631337612689572,119.02202447150361,0.1339828402319866,39.6305561694809,1.564620666800816,-0.0019783454705402203,-0.002794876509803146,8836713.511643194,0.08710409675027223,1.0,0.17420819350054445,1.0
5.999999999999995,0.11066062020343254,123.05467991507753,0.14347244076536816,40.32655443573909,1.5644202149908202,-0.0020045180999615523,-0.0028183609018772593,8832396.343702944,0.08581543405968753,1.0,0.17163086811937506,1.0
6.099999999999994,0.12599262707623726,127.15701801807325,0.1533200687280473,41.02338102995721,1.5642171901091968,-0.0020302488162316575,-0.00284177152892795,8828079.175728446,0.08450404816254448,1.0,0.16900809632508895,1.0
6.199999999999994,0.14234569883391776,131.329121703519,0.1635307175768051,41.72103685445749,1.5640116371650439,-0.0020555294415270545,-0.0028650871355486718,8823762.00771966,0.08317041143719955,1.0,0.1663408228743991,1.0
6.299999999999994,0.15975662961680326,135.57107398462045,0.17410930782885492,42.419522811014346,1.56380360197108,-0.0020803519396397343,-0.0028882861459595954,8819444.839676585,0.08181500441159946,1.0,0.16363000882319892,1.0
6.399999999999993,0.17826269815614093,139.88295796470976,0.1850606853933766,43.118839800893085,1.5635931311291074,-0.002104708419727562,-0.0029113466741210736,8815127.671599258,0.08043831561308344,1.0,0.16087663122616688,1.0
6.499999999999993,0.1979016601482011,144.26485683719898,0.1963896199206015,43.818988724892264,1.5633802720151,-0.0021285911400740366,-0.002934246534101126,8810810.503487756,0.07904084141443705,1.0,0.1580816828288741,1.0
6.5999999999999925,0.21871174046511688,148.71685388553794,0.20810080316915786,44.5199704833897,1.5631650727639144,-0.0021519925118564653,-0.0029569632506945,8806493.335342199,0.07762308587624853,1.0,0.15524617175249705,1.0
6.699999999999992,0.24073162520435662,153.23903248317717,0.22019884739239745,45.22178597639212,1.562947582253622,-0.0021749051029215124,-0.002979474070294641,8802176.167162737,0.07618556058546505,1.0,0.1523711211709301,1.0
6.799999999999992,0.26400045357879964,157.83147609353603,0.23268828374443007,45.92443610358848,1.5627278500894657,-0.002197321641567043,-0.003001755972019904,8797858.998949565,0.07472878449024405,1.0,0.14945756898048806,1.0
6.8999999999999915,0.2885578096494601,162.49426826997671,0.24557356070660438,46.62792176440684,1.5625059265874328,-0.0022192350203291055,-0.003023785679087787,8793541.830702912,0.07325328373105022,1.0,0.14650656746210045,1.0
6.999999999999991,0.31444371390297815,167.2274926557842,0.25885904253518066,47.3322438580749,1.5622818627574557,-0.0022406382997728277,-0.003045539670442965,8789224.662423046,0.0717595914679991,1.0,0.1435191829359982,1.0
7.099999999999991,0.34169861467607315,172.0312329841526,0.2725490077309502,48.03740328368399,1.562055710286227,-0.0022615247122859303,-0.0030669941926340094,8784907.494110271,0.07024824770447032,1.0,0.14049649540894063,1.0
7.19999999999999,0.3703633794292297,176.9055730781783,0.2866476475315653,48.74340094025673,1.5618275215196396,-0.0022818876658735015,-0.0030881252719405783,8780590.325764926,0.06871979910695272,1.0,0.13743959821390545,1.0
7.29999999999999,0.40047928587196496,181.8505968508601,0.30115906442735263,49.450237726818,1.5615973494448443,-0.0023017207479525854,-0.003108908726747295,8776273.157387387,0.0671747988211812,1.0,0.1343495976423624,1.0
7.39999999999999,0.4320880129421039,186.86638830510705,0.31608727070138976,50.157914542469555,1.5613652476719297,-0.0023210177291450814,-0.003129320180165429,8771955.988978064,0.06561380628451767,1.0,0.13122761256903534,1.0
7.499999999999989,0.4652316316415674,191.95303153375383,0.3314361869946348,50.86643228646783,1.561131270415223,-0.0023397725670673787,-0.0031493350729010494,8767638.820537401,0.06403738703461656,1.0,0.12807477406923312,1.0
7.599999999999989,0.499952595731258,197.11061071958434,0.34720964089690604,51.57579185830523,1.5608954724742112,-0.002357979410115052,-0.0031689286763660895,8763321.652065877,0.062446112514365534,1.0,0.12489222502873105,1.0
7.699999999999989,0.5362937322877097,202.3392101353638,0.36341136556451703,52.28599415779466,1.5606579092140875,-0.0023756326012409,-0.0031880761060325558,8759004.483564,0.06084055987313898,1.0,0.12168111974627796,1.0
7.799999999999988,0.5742982321242478,207.63891414387953,0.3800449983653813,52.99704008515722,1.5604186365459147,-0.0023927266817245084,-0.0032067523350274296,8754687.315032315,0.05922131176432455,1.0,0.1184426235286491,1.0
7.899999999999988,0.6140096400794884,213.00980719799085,0.3971140795524059,53.70893054111309,1.5601777109064219,-0.0024092563949314532,-0.003224932207966713,8750370.14647139,0.05758895613918875,1.0,0.1151779122783775,1.0
7.999999999999988,0.6554718451760888,218.4519738406884,0.4146220509660042,54.42166642697552,1.5599351892374158,-0.0024252166900601713,-0.003242590455025729,8746052.97788183,0.05594408603708266,1.0,0.1118881720741653,1.0
8.099999999999987,0.698729070652745,223.96549870516316,0.43257225476656186,55.135248644747726,1.5596911289648283,-0.0024406027258744617,-0.0032597017062436784,8741735.809264267,0.054287299371984336,1.0,0.10857459874396867,1.0
8.199999999999987,0.7438258638725149,229.55046651488544,0.4509679321976992,55.849678097222764,1.5594455879773863,-0.002455409874419496,-0.003276240506060235,8737418.640619358,0.05261919871542174,1.0,0.10523839743084348,1.0
8.299999999999986,0.7908070861106329,235.20696208369407,0.46981222238117903,56.56495568808617,1.5591986246049143,-0.002469633724719115,-0.0032921813280819556,8733101.471947791,0.05094039107580143,1.0,0.10188078215160286,1.0
8.399999999999986,0.8397179022250645,240.9350703158962,0.48910816114431577,57.28108232202138,1.558950297596269,-0.0024832700864521546,-0.003307498590073621,8728784.303250277,0.04925148767413578,1.0,0.09850297534827156,1.0
8.499999999999986,0.8906037702131392,246.73487620637798,0.508858679880747,57.99805890481772,1.5587006660969085,-0.002496314993605401,-0.0033221666691738427,8724467.134527555,0.047553103716234675,1.0,0.09510620743246935,1.0
8.599999999999985,0.9435104306576827,252.60646484072606,0.5290666044454345,58.715886343480925,1.5584497896260985,-0.0025087647081007613,-0.0033361599173300505,8720149.965780381,0.045845858161357986,1.0,0.09169171632271597,1.0
8.699999999999985,0.9984838960661596,258.5499213953607,0.5497346540847693,59.43456554634613,1.558197728053759,-0.002520615723394098,-0.003349452676950415,8715832.797009539,0.04413037348739113,1.0,0.08826074697478226,1.0
8.799999999999985,1.055570440106425,264.56533113768,0.5708654404026546,60.15409742319306,1.5579445415769548,-0.00253186476804313,-0.0033620192967673823,8711515.628215833,0.042407275452548784,1.0,0.08481455090509755,1.0
