t[s],x[m],y[m],vx[m/s],vy[m/s],mass[kg]
0.1,-4.6438518365472255e-06,1.4365000925559732,-4.6438518365472255e-05,-0.6349990744402686,12696625.2500031
0.2,-1.395467454056449e-05,1.309503745601327,-9.310822704017264e-05,-1.2699634695464623,12695346.088812321
0.30000000000000004,-2.795528128039222e-05,1.1190144133193454,-0.0001400060673982773,-1.904893322819817,12694066.927621689
0.4,-4.6668390201749026e-05,0.8650355361398772,-0.000187131089213568,-2.5397887717946817,12692787.766431205
0.5,-7.011662413446086e-05,0.5475705407358658,-0.0002344823393271184,-3.1746499540401145,12691508.60524087
0.6,-9.832251003037104e-05,0.16662284001965322,-0.0002820588589591018,-3.8094770071621253,12690229.444050686
0.7,-0.00013130847839864571,-0.27780416686093884,-0.00032985968368274665,-4.4442700688059205,12688950.282860655
0.7999999999999999,-0.00016909687048561684,-0.7857070387262834,-0.0003778839208697112,-5.079028718653446,12687671.121670777
0.8999999999999999,-0.00021170992868120822,-1.3570823019319176,-0.00042613058195591384,-5.713752632056341,12686391.960481053
0.9999999999999999,-0.000259169792573538,-1.9919264838323836,-0.00047459863892329785,-6.34844181900466,12685112.799291486
1.0999999999999999,-0.00031149850302167456,-2.6902361127808314,-0.0005232871044813655,-6.983096289484475,12683833.638102077
1.2,-0.0003687180015731491,-3.452007718128613,-0.0005721949855147452,-7.617716053477816,12682554.476912828
1.3,-0.00043085012987829056,-4.277237830224875,-0.0006213212830514145,-8.25230112096262,12681275.31572374
1.4000000000000001,-0.0004979166291013803,-5.165922980416144,-0.000670664992230898,-8.88685150191269,12679996.154534815
1.5000000000000002,-0.0005699391393285857,-6.118059701045907,-0.0007202251022720532,-9.521367206297635,12678716.993346054
1.6000000000000003,-0.0006469391989726677,-7.133644525454191,-0.0007700005964408205,-10.155848244082838,12677437.83215746
1.7000000000000004,-0.0007289382441744398,-8.21267398797713,-0.0008199904520177215,-10.790294625229397,12676158.670969032
1.8000000000000005,-0.0008159576082009647,-9.355144623946538,-0.000870193640265249,-11.42470635969408,12674879.509780774
1.9000000000000006,-0.0009080185208404572,-10.561052969689467,-0.000920609126394924,-12.059083457429278,12673600.348592686
2.0000000000000004,-0.0010051421077938811,-11.830395562527762,-0.0009712358695342386,-12.69342592838296,12672321.18740477
2.1000000000000005,-0.0011073493900632238,-13.163168940777624,-0.0010220728226934261,-13.327733782498619,12671042.026217028
2.2000000000000006,-0.0012146612833364356,-14.559369643749147,-0.001073118932732118,-13.96200702971523,12669762.865029462
2.3000000000000007,-0.0013270985973689868,-16.018994211745866,-0.0011243731403255124,-14.596245679967199,12668483.703842072
2.400000000000001,-0.0014446820353620539,-17.542039186064297,-0.0011758343799306696,-15.230449743184314,12667204.54265486
2.500000000000001,-0.0015674321933373,-19.12850110899347,-0.0012275015797524626,-15.864619229291701,12665925.38146783
2.600000000000001,-0.0016953695595082355,-20.778376523814444,-0.0012793736617093543,-16.498754148209773,12664646.220280983
2.700000000000001,-0.001828514513648126,-22.49166197479986,-0.0013314495413989044,-17.132854509854184,12663367.05909432
2.800000000000001,-0.0019668873264544434,-24.26835400721344,-0.0013837281280631747,-17.76692032413578,12662087.897907842
2.9000000000000012,-0.0021105081589098385,-26.108449167309494,-0.0014362083245539504,-18.400951600960543,12660808.736721551
3.0000000000000013,-0.0022593970616395925,-28.011944002332452,-0.0014888890272975392,-19.034948350229563,12659529.57553545
3.1000000000000014,-0.002413573974265555,-29.97883506051635,-0.0015417691262596257,-19.668910581838965,12658250.414349541
3.2000000000000015,-0.002573058724756533,-32.009118891084334,-0.0015948475049097823,-20.30283830567988,12656971.253163824
3.3000000000000016,-0.00273787102877512,-34.102792044248176,-0.0016481230401858694,-20.93673153163839,12655692.091978302
3.4000000000000017,-0.0029080304890209308,-36.25985107120772,-0.0017015946024581063,-21.57059026959547,12654412.930792976
3.5000000000000018,-0.003083556594570225,-38.480292524150414,-0.0017552610554929407,-22.204414529426952,12653133.76960785
3.600000000000002,-0.0032644687202119074,-40.76411295625076,-0.0018091212564168258,-22.838204321003477,12651854.608422922
3.700000000000002,-0.00345078612577988,-43.1113089216698,-0.0018631740556797236,-23.471959654190435,12650575.447238198
3.800000000000002,-0.003642527955481715,-45.5218769755546,-0.0019174182970183504,-24.105680538847924,12649296.286053678
3.900000000000002,-0.0038397132372236303,-47.99581367403767,-0.0019718528174191533,-24.7393669848307,12648017.124869363
4.000000000000002,-0.004042360881931764,-50.53311557423648,-0.002026476447081339,-25.373019001988126,12646737.963685257
4.100000000000001,-0.004250489682869696,-53.1337792342529,-0.002081288009379322,-26.00663660016413,12645458.802501362
4.200000000000001,-0.004464118314952218,-55.79780121317261,-0.0021362863208252256,-26.640219789197136,12644179.641317679
4.300000000000001,-0.004683265334055321,-58.525178071064616,-0.0021914701910310305,-27.27376857892004,12642900.48013421
4.4,-0.004907949176322376,-61.315906368980635,-0.002246838422670549,-27.90728297916015,12641621.318950957
4.5,-0.005138188157466488,-64.16998266895455,-0.00230238981144112,-28.540762999739126,12640342.157767922
4.6,-0.005374000472069008,-67.08740353400184,-0.0023581231460252034,-29.174208650472945,12639062.996585106
4.699999999999999,-0.005615404192874171,-70.06816552811902,-0.002414037208051628,-29.80761994117184,12637783.835402515
4.799999999999999,-0.005862417270079835,-73.11226521628305,-0.0024701307720566496,-30.44099688164026,12636504.674220147
4.899999999999999,-0.0061150575306243024,-76.21969916445073,-0.0025264026054446684,-31.074339481676816,12635225.513038006
4.999999999999998,-0.006373342677469201,-79.39046393955816,-0.002582851468448985,-31.707647751074223,12633946.351856094
5.099999999999998,-0.006637290288878415,-82.62455610952009,-0.002639476114092139,-32.34092169961926,12632667.190674413
5.1999999999999975,-0.0069069178176930125,-85.92197224322936,-0.002696275288145976,-32.97416133709272,12631388.029492965
5.299999999999997,-0.007182242590602165,-89.2827089105563,-0.002753247729091531,-33.60736667326933,12630108.868311753
5.399999999999997,-0.007463281807410045,-92.70676268234807,-0.0028103921680787897,-34.24053771791777,12628829.707130779
5.4999999999999964,-0.007750052540298648,-96.19413013042812,-0.002867707328886037,-34.87367448080053,12627550.545950044
5.599999999999996,-0.008042571733086548,-99.74480782759551,-0.0029251919278790034,-35.506776971673936,12626271.384769551
5.699999999999996,-0.008340856200483538,-103.35879234762432,-0.0029828446739699095,-36.13984520028804,12624992.223589303
5.799999999999995,-0.008644922627341145,-107.03608026526298,-0.003040664268576075,-36.77287917638663,12623713.062409302
5.899999999999995,-0.00895478756789898,-110.7766681562337,-0.0030986494055783415,-37.40587890970711,12622433.901229551
5.999999999999995,-0.009270467445026926,-114.58055259723174,-0.0031567987712794606,-38.038844409980506,12621154.740050051
6.099999999999994,-0.009591978549463108,-118.44773016592488,-0.0032151110443618147,-38.671775686931376,12619875.578870805
6.199999999999994,-0.009919337039047642,-122.37819744095266,-0.003273584895845345,-39.304672750277774,12618596.417691814
6.299999999999994,-0.010252558937952131,-126.37195100192578,-0.003332218989044887,-39.9375356097312,12617317.256513081
6.399999999999993,-0.01059166013590487,-130.42898742942543,-0.0033910119795273965,-40.57036427499653,12616038.095334612
6.499999999999993,-0.01093665638741176,-134.54930330500264,-0.0034499625150688972,-41.20315875577198,12614758.934156405
6.5999999999999925,-0.011287563310972892,-138.73289521117755,-0.003509069235611324,-41.83591906174906,12613479.772978464
6.699999999999992,-0.01164439638829477,-142.9797597314388,-0.0035683307732187687,-42.468645202612485,12612200.611800792
6.799999999999992,-0.012007170963498147,-147.28989345024283,-0.0036277457520337716,-43.10133718804016,12610921.450623391
6.8999999999999915,-0.012375902242321473,-151.66329295301313,-0.00368731278823326,-43.73399502770311,12609642.289446265
6.999999999999991,-0.012750605291319893,-156.09995482613968,-0.0037470304899842126,-44.36661873126541,12608363.128269413
7.099999999999991,-0.013131295037059806,-160.5998756569781,-0.003806897457399132,-44.99920830838417,12607083.967092842
7.19999999999999,-0.013517986265308906,-165.16305203384906,-0.0038669122824909995,-45.63176376870943,12605804.805916552
7.29999999999999,-0.013910693620221742,-169.78948054603748,-0.003927073549128354,-46.264285121884164,12604525.644740546
7.39999999999999,-0.01430943160352072,-174.4791577837919,-0.003987379832989775,-46.89677237754416,12603246.483564828
7.499999999999989,-0.014714214573672547,-179.2320803383237,-0.004047829701518258,-47.52922554531802,12601967.322389398
7.599999999999989,-0.015125056745060076,-184.0482448018064,-0.004108421713875295,-48.16164463482707,12600688.16121426
7.699999999999989,-0.015541972187149545,-188.92764776737494,-0.004169154420894699,-48.79402965568532,12599409.00003942
7.799999999999988,-0.015964974823653152,-193.87028582912487,-0.004230026365036057,-49.42638061749941,12598129.838864876
7.899999999999988,-0.01639407843168696,-198.87615558211172,-0.00429103608033807,-50.05869752986854,12596850.677690633
7.999999999999988,-0.016829296640924106,-203.94525362235015,-0.004352182092371453,-50.69098040238441,12595571.516516693
8.099999999999987,-0.01727064293274327,-209.07757654681328,-0.004413462918191641,-51.32322924463119,12594292.35534306
8.199999999999987,-0.0177181306393724,-214.27312095343183,-0.004474877066291286,-51.95544406618545,12593013.194169737
8.299999999999986,-0.018171772943027627,-219.53188344109344,-0.0045364230365522494,-52.587624876616076,12591734.032996727
8.399999999999986,-0.018631582875047382,-224.85386060964186,-0.004598099320197538,-53.21977168548425,12590454.871824032
8.499999999999986,-0.019097573315021665,-230.23904905987618,-0.004659904399742814,-53.85188450234337,12589175.710651655
8.599999999999985,-0.01956975698991644,-235.6874453935501,-0.004721836748947768,-54.483963336738995,12587896.549479598
8.699999999999985,-0.020048146473193133,-241.19904621337096,-0.004783894832766908,-55.1160081982088,12586617.388307868
8.799999999999985,-0.02053275418392318,-246.77384812299923,-0.004846077107300453,-55.748019096282505,12585338.227136463
8.899999999999984,-0.02102359238589764,-252.41184772704742,-0.004908382019744631,-56.3799960404818,12584059.06596539
8.999999999999984,-0.021520673186731825,-258.11304163107945,-0.004970808008341848,-57.011939040320314,12582779.90479465
9.099999999999984,-0.022024008536964866,-263.8774264416098,-0.005033353502330421,-57.64384810530354,12581500.743624248
9.199999999999983,-0.022533610229154278,-269.7049987661027,-0.005096016921894102,-58.27572324492877,12580221.582454184
9.299999999999983,-0.0230494898969654,-275.5957552129712,-0.005158796678111238,-58.907564468685045,12578942.421284463
9.399999999999983,-0.023571659014255782,-281.5496923915765,-0.005221691172903805,-59.53937178605309,12577663.260115089
9.499999999999982,-0.02410012889415438,-287.56680691222704,-0.005284698798985994,-60.171145206505244,12576384.098946065
9.599999999999982,-0.024634910688135617,-293.64709538617757,-0.005347817939812361,-60.802884739505416,12575104.937777393
9.699999999999982,-0.025176015385088218,-299.79055442562844,-0.005411046969525999,-61.43459039450901,12573825.776609078
9.799999999999981,-0.02572345381037882,-305.99718064372473,-0.005474384252906023,-62.06626218096285,12572546.615441123
9.89999999999998,-0.026277236624910338,-312.2669706545552,-0.005537828145315176,-62.69790010830515,12571267.45427353
9.99999999999998,-0.026837374324175003,-318.5999210731518,-0.005601376992646656,-63.32950418596541,12569988.293106303
10.09999999999998,-0.0274038772373021,-324.9960285154882,-0.00566502913127098,-63.961074423364394,12568709.131939447
10.19999999999998,-0.027976755526100343,-331.4552895984796,-0.005728782887982394,-64.59261082991404,12567429.970772963
10.29999999999998,-0.028556019184094842,-337.97770093998133,-0.005792636579944997,-65.22411341501737,12566150.809606856
10.399999999999979,-0.029141678035558692,-344.5632591587882,-0.005856588514638488,-65.85558218806851,12564871.64844113
10.499999999999979,-0.029733741734539056,-351.21196087463346,-0.005920636989803629,-66.48701715845253,12563592.487275789
10.599999999999978,-0.030332219763877788,-357.923802708188,-0.005984780293387326,-67.11841833554541,12562313.326110834
10.699999999999978,-0.030937121434226545,-364.69878128105944,-0.006049016703487585,-67.74978572871402,12561034.164946271
10.799999999999978,-0.03154845588305633,-371.53689321579105,-0.006113344488297848,-68.38111934731597,12559755.003782103
10.899999999999977,-0.032166232073661455,-378.438135135861,-0.0061777619060512,-69.01241920069961,12558475.842618333
10.999999999999977,-0.03279045879415787,-385.40250366568137,-0.006242267204964195,-69.64368529820393,12557196.681454966
11.099999999999977,-0.0334211446564759,-392.4299954305972,-0.006306858623180312,-70.27491764915851,12555917.520292005
11.199999999999976,-0.03405829809534721,-399.5206070568856,-0.00637153438871311,-70.90611626288343,12554638.359129453
11.299999999999976,-0.03470192736728611,-406.6743351717545,-0.006436292719389006,-71.5372811486892,12553359.197967315
11.399999999999975,-0.03535204054956509,-413.8911764033422,-0.0065011318227897585,-72.16841231587674,12552080.036805594
11.499999999999975,-0.03600864553918454,-421.1711273807159,-0.006566049896194569,-72.79950977373721,12550800.875644295
11.599999999999975,-0.03667175005183674,-428.5141847338711,-0.006631045126521961,-73.43057353155207,12549521.714483421
11.699999999999974,-0.03734136162086384,-435.9203450937304,-0.006696115690271048,-74.06160359859288,12548242.553322976
11.799999999999974,-0.038017487596210105,-443.3896050921426,-0.006761259753462648,-74.69259998412132,12546963.392162966
11.899999999999974,-0.03870013514336811,-450.9219613618815,-0.006826475471580111,-75.32356269738906,12545684.231003392
11.999999999999973,-0.03938931124231908,-458.51741053664523,-0.006891760989509667,-75.95449174763775,12544405.06984426
12.099999999999973,-0.04008502268646711,-466.1759492510551,-0.006957114441480325,-76.58538714409885,12543125.908685574
12.199999999999973,-0.04078727608156747,-473.89757414065446,-0.007022533951003619,-77.21624889599366,12541846.747527339
12.299999999999972,-0.04149607784464877,-481.68228184190775,-0.007088017630812971,-77.84707701253318,12540567.586369557
12.399999999999972,-0.04221143420292901,-489.5300689921996,-0.007153563582802433,-78.47787150291805,12539288.425212234
12.499999999999972,-0.04293335119272556,-497.44093222983344,-0.007219169897965435,-79.10863237633848,12538009.264055373
12.599999999999971,-0.04366183465835885,-505.4148681940309,-0.007284834656332908,-79.73935964197418,12536730.10289898
12.69999999999997,-0.04439689025104997,-513.4518735249303,-0.0073505559269111806,-80.37005330899426,12535450.941743057
12.79999999999997,-0.045138523427811904,-521.5519448635861,-0.007416331767619401,-81.00071338655718,12534171.780587612
12.89999999999997,-0.045886739450334564,-529.7150788519672,-0.007482160225226577,-81.63133988381064,12532892.619432645
12.99999999999997,-0.04664154338386339,-537.9412721329563,-0.007548039335288299,-82.26193280989153,12531613.458278164
13.09999999999997,-0.04740294009607172,-546.2305213503489,-0.00761396712208323,-82.89249217392583,12530334.297124172
13.199999999999969,-0.048170934255926605,-554.5828231488517,-0.007679941598548885,-83.52301798502855,12529055.135970674
13.299999999999969,-0.04894553033254833,-562.9981741740821,-0.0077459607662172586,-84.15351025230362,12527775.974817675
13.399999999999968,-0.04972673259406333,-571.4765710725665,-0.007812022615149975,-84.78396898484385,12526496.813665178
13.499999999999968,-0.05051454510645065,-580.0180104917396,-0.007878125123873201,-85.41439419173082,12525217.65251319
13.599999999999968,-0.05130897173238184,-588.6224890799431,-0.007944266259311926,-86.04478588203477,12523938.491361713
13.699999999999967,-0.05211001613005425,-597.2900034864246,-0.008010443976724079,-86.67514406481457,12522659.330210755
13.799999999999967,-0.05291768175201766,-606.0205503613363,-0.008076656219634094,-87.30546874911762,12521380.169060318
13.899999999999967,-0.053731971843994274,-614.8141263557343,-0.00814290091976615,-87.93575994397975,12520101.007910408
13.999999999999966,-0.05455288944369197,-623.6707281215768,-0.008209175996977012,-88.56601765842511,12518821.846761031
14.099999999999966,-0.05538043737961081,-632.5903523117233,-0.008275479359188393,-89.19624190146617,12517542.68561219
14.199999999999966,-0.05621461826984272,-641.5729955799337,-0.008341808902319064,-89.82643268210353,12516263.524463892
14.299999999999965,-0.05705543452086436,-650.6186545808663,-0.008408162510216415,-90.45659000932591,12514984.363316141
14.399999999999965,-0.057902888326323135,-659.7273259700773,-0.008474538054587758,-91.08671389211001,12513705.202168941
14.499999999999964,-0.05875698166581623,-668.8990064040194,-0.008540933394930911,-91.71680433942046,12512426.041022299
14.599999999999964,-0.05961771630366271,-678.1336925400403,-0.008607346378464775,-92.34686136020969,12511146.879876219
14.699999999999964,-0.060485093787668635,-687.4313810363822,-0.008673774840059253,-92.97688496341786,12509867.718730707
14.799999999999963,-0.06135911544788511,-696.7920685521794,-0.008740216602164777,-93.60687515797278,12508588.557585767
14.899999999999963,-0.062239782395359246,-706.2157517474584,-0.00880666947474133,-94.2368319527898,12507309.396441406
14.999999999999963,-0.06312709552087797,-715.7024272831355,-0.008873131255187305,-94.86675535677169,12506030.235297628
15.099999999999962,-0.06402105549370475,-725.2520918210164,-0.008939599728267708,-95.49664537880862,12504751.074154438
15.199999999999962,-0.06492166276030896,-734.8647420237942,-0.009006072666042022,-96.12650202777799,12503471.913011843
15.299999999999962,-0.06582891754308812,-744.5403745550486,-0.009072547827791592,-96.75632531254436,12502192.751869848
15.399999999999961,-0.06674281983908278,-754.2789860792445,-0.009139022959946655,-97.38611524195936,12500913.59072846
15.499999999999961,-0.06766336941868406,-764.0805732617307,-0.009205495796012804,-98.01587182486159,12499634.429587683
15.59999999999996,-0.06859056582433377,-773.9451327687384,-0.009271964056497106,-98.64559507007652,12498355.268447522
15.69999999999996,-0.06952440836921715,-783.8726612673801,-0.009338425448833816,-99.27528498641638,12497076.107307984
15.79999999999996,-0.0704648961359481,-793.8631554256481,-0.009404877667309493,-99.90494158268007,12495796.946169075
15.89999999999996,-0.07141202797524689,-803.9166119124134,-0.009471318392987853,-100.53456486765302,12494517.785030799
15.99999999999996,-0.0723658025046103,-814.0330273974241,-0.009537745293634135,-101.16415485010717,12493238.623893164
16.09999999999996,-0.07332621810697418,-824.2123985513042,-0.009604156023638784,-101.79371153880078,12491959.462756174
16.19999999999996,-0.07429327292936828,-834.454722045552,-0.009670548223941047,-102.42323494247839,12490680.301619837
16.29999999999996,-0.07526696488156347,-844.7599945525391,-0.0097369195219518,-103.05272506987065,12489401.140484158
16.399999999999963,-0.07624729163471108,-855.1282127455084,-0.00980326753147612,-103.68218192969425,12488121.979349142
16.499999999999964,-0.0772342506199746,-865.5593732985736,-0.00986958985263519,-104.31160553065185,12486842.818214796
16.599999999999966,-0.0782278390271534,-876.0534728867168,-0.009935884071788,-104.94099588143186,12485563.657081127
16.699999999999967,-0.07922805380329864,-886.6105081857877,-0.010002147761452385,-105.57035299070846,12484284.495948141
