time[s],x[m],y[m],vx[m/s],vy[m/s],theta[rad],theta_dot[rad/s],alpha[rad],mass[kg],gimbalangle[deg],nonnominalthrottle[0-1],u0,u1
0.1,-0.00010367480035183175,1.5560712495743827,-0.0010367480035183175,0.5607124957438269,1.570794356008261,-1.970786635638532e-05,-0.0018509519132083874,6937905.914261036,0.100198280847814,1.0,0.200396561695628,1.0
0.2,-0.0003112590194364539,1.668283069431239,-0.0020758421908462213,1.122118198568562,1.5707904046943364,-3.951313924368969e-05,-0.0018558518365572318,6934787.959961174,0.100673476583452,1.0,0.201346953166904,1.0
0.30000000000000004,-0.0006226549407185125,1.83670489213586,-0.0031139592128205853,1.684218227046209,1.5707844636221229,-5.941072213809818e-05,-0.0018607658948310846,6931670.005671499,0.1011225759001539,1.0,0.2022451518003078,1.0
0.4,-0.0010374412098716436,2.0614062622922953,-0.004147862691531312,2.247013701564354,1.5707765238702829,-7.939751839938432e-05,-0.001865745375857708,6928552.051391693,0.1015557816520382,1.0,0.2031115633040764,1.0
0.5,-0.0015548709643192584,2.342456836740969,-0.0051742975444761495,2.810505744486735,1.570766576828371,-9.947041912039335e-05,-0.0018708035593064665,6925434.097121432,0.10197304116604453,1.0,0.20394608233208905,1.0
0.6,-0.0021738699962151214,2.6799263847537724,-0.006189990318958629,3.374695480128035,1.57075461419826,-0.00011962630110988455,-0.0018759472449194625,6922316.142860388,0.10237429154314069,1.0,0.20474858308628135,1.0
0.7,-0.0028930349628313364,3.0738847882265756,-0.0071916496661621485,3.939584034728033,1.5707406279955132,-0.00013986202746932793,-0.0018811812905077385,6919198.188608225,0.10275947284085032,1.0,0.20551894568170065,1.0
0.7999999999999999,-0.003710631644679735,3.52440204186911,-0.008175966818483987,4.505172536425348,1.570724610550696,-0.00016017444817254588,-0.0018865097458025115,6916080.234364603,0.10312852808472574,1.0,0.20625705616945147,1.0
0.8999999999999999,-0.004624593251684007,4.031548253392192,-0.00913961607004272,5.071462115230809,1.5707065545106313,-0.000180560400648076,-0.001891936229858171,6912962.280129175,0.10348140327919156,1.0,0.20696280655838312,1.0
0.9999999999999999,-0.005632518777711605,4.595393643692238,-0.010079255260275978,5.6384539030004595,1.5706864528395947,-0.00020101671036415589,-0.0018974640815412336,6909844.325901591,0.10381804741788576,1.0,0.20763609483577153,1.0
1.0999999999999999,-0.006731671403766036,5.216008547033058,-0.010991526260544308,6.206149033408208,1.570664298820453,-0.00022154019141622046,-0.0019030964275310591,6906726.371681496,0.10413841249343915,1.0,0.2082768249868783,1.0
1.2,-0.007918976950131325,5.893463411224873,-0.011873055463652901,6.7745486419181535,1.5706400860557415,-0.0002421276471167937,-0.0019088362159660477,6903608.417468528,0.10444245350666363,1.0,0.20888490701332724,1.0
1.3,-0.009191022377752074,6.627828797800533,-0.01272045427620749,7.3436538657566,1.5706138084686825,-0.00026277587058767154,-0.0019146862342556137,6900490.463262324,0.10473012847521147,1.0,0.20946025695042295,1.0
1.4000000000000001,-0.010544054339123655,7.41917538218891,-0.013530319613715805,7.913465843883764,1.5705854603041474,-0.00028348164535428084,-0.001920649118991813,6897372.509062516,0.10500139844165668,1.0,0.21000279688331336,1.0
1.5000000000000002,-0.011973977778958471,8.267573953885432,-0.014299234398348152,8.483985716965213,1.570555036129553,-0.00030424174594210714,-0.0019267273616621061,6894254.554868729,0.10525622748102931,1.0,0.21051245496205861,1.0
1.6000000000000003,-0.013476354584885202,9.173095416619736,-0.015023768059267315,9.055214627343046,1.5705225308357054,-0.00032505293847506864,-0.0019329233120173317,6891136.600680589,0.10549458270773993,1.0,0.21098916541547985,1.0
1.7000000000000004,-0.015046402288429392,10.135810788520418,-0.015700477035441904,9.62715371900682,1.5704879396375777,-0.00034591198127573733,-0.001939239180075436,6888018.646497715,0.10571643428199666,1.0,0.2114328685639933,1.0
1.8000000000000005,-0.016678992816514387,11.155791202276845,-0.016325905280849973,10.199804137564271,1.5704512580750314,-0.0003668156254672831,-0.001945677037302307,6884900.692319727,0.10592175541560025,1.0,0.2118435108312005,1.0
1.9000000000000006,-0.018368651293713085,12.233107905298027,-0.016896584771986984,10.773167030211814,1.5704124820134735,-0.0003877606155770354,-0.0019522388172892313,6881782.738146236,0.10611052237721239,1.0,0.21222104475442477,1.0
2.0000000000000004,-0.02010955489547156,13.367832259868514,-0.01740903601758476,11.347243545704872,1.5703716076444594,-0.00040874369014154015,-0.0019589263161141623,6878664.783976857,0.1062827144970071,1.0,0.2125654289940142,1.0
2.1000000000000005,-0.021895531752516746,14.560035743301317,-0.017859768570451868,11.922034834328029,1.5703286314862281,-0.0004297615823130061,-0.0019657411925033674,6875546.829811198,0.10643831417079284,1.0,0.2128766283415857,1.0
2.2000000000000006,-0.023720059906651148,15.809789948087822,-0.018245281541344034,12.497542047865043,1.5702835503841814,-0.00045081102046701986,-0.0019726849678705083,6872428.875648866,0.106577306863528,1.0,0.213154613727056,1.0
2.3000000000000007,-0.025576266318128364,17.117166582044696,-0.018562064114772146,13.073766339568731,1.5702363615113,-0.00047188872881141856,-0.0019797590262788933,6869310.921489469,0.10669968111228673,1.0,0.21339936222457345,1.0
2.400000000000001,-0.027456925924793978,18.48223746845777,-0.01880659606665614,13.650708864130749,1.5701870623685008,-0.0004929914279962035,-0.0019869646143622077,6866192.967332609,0.10680542852863664,1.0,0.21361085705727328,1.0
2.500000000000001,-0.02935446075316715,19.9050745462229,-0.018975348283731708,14.228370777651277,1.570135650784928,-0.0005141158357243775,-0.001994302841223927,6863075.013177889,0.10689454380043441,1.0,0.21378908760086882,1.0
2.600000000000001,-0.03126093908162873,21.385749869983762,-0.019064783284615822,14.806753237608648,1.5700821249181918,-0.0005352586673635953,-0.0020017746783311807,6859957.059024912,0.10696702469306926,1.0,0.2139340493861385,1.0
2.700000000000001,-0.03316807465587253,22.924335610266656,-0.019071355742437936,15.385857402828929,1.5700264832545359,-0.000556416636558505,-0.0020093809594139422,6856839.104873278,0.10702287205009929,1.0,0.21404574410019858,1.0
2.800000000000001,-0.03506722595676692,24.520904053612202,-0.018991513008943955,15.965684433455465,1.5699687246089515,-0.0005775864558436689,-0.0020171223803782112,6853721.150722588,0.10706208979333869,1.0,0.21412417958667737,1.0
2.9000000000000012,-0.03694939552076455,26.175527602704047,-0.01882169563997628,16.546235490918434,1.5699088481252261,-0.0005987648372569477,-0.002024999499237845,6850603.196572443,0.10708468492235429,1.0,0.21416936984470858,1.0
3.0000000000000013,-0.03880522931298816,27.888278776494488,-0.018558337922236098,17.1275117379044,1.5698468532759307,-0.0006199484929532259,-0.0020330127360674854,6847485.24242244,0.1070906675133777,1.0,0.2141813350267554,1.0
3.1000000000000014,-0.04062501615311146,29.65923021032708,-0.01819786840123303,17.709514338325913,1.5697827398623487,-0.0006411341358183699,-0.002041162372984351,6844367.288272182,0.10708005071766197,1.0,0.21416010143532394,1.0
3.2000000000000015,-0.042398687194144045,31.4884546560562,-0.017736710410325818,18.292244457291165,1.5697165080143403,-0.0006623184800832963,-0.002049448554155564,6841249.33412127,0.10705285075924435,1.0,0.2141057015184887,1.0
3.3000000000000016,-0.04411581545421999,33.37602498216357,-0.01717128260075946,18.87570326107371,1.5696481581901467,-0.0006834982419380369,-0.0020578712858374537,6838131.379969304,0.10700908693213654,1.0,0.21401817386427305,1.0
3.4000000000000017,-0.04576561540148,35.3220141738718,-0.016497999472600045,19.4598919170823,1.569577691176132,-0.0007046701401456832,-0.0020664304364448327,6835013.425815889,0.1069487815969539,1.0,0.2138975631939078,1.0
3.5000000000000018,-0.04733694259212734,37.32649533325488,-0.015713271906473408,20.04481159383082,1.5695051080864668,-0.0007258308966560886,-0.0020751257366533604,6831895.471660627,0.10687196017693083,1.0,0.21374392035386167,1.0
3.600000000000002,-0.048818293361728306,39.38954167934572,-0.014813507696009672,20.63046346090837,1.5694304103627448,-0.0007469772372192232,-0.002083956779535212,6828777.517503125,0.10677865115341846,1.0,0.21355730230683692,1.0
3.700000000000002,-0.050197804569817886,41.51122654824067,-0.013795112080895835,21.216848688949522,1.569353599773545,-0.0007681058919980489,-0.0020929230207271665,6825659.5633429885,0.10666888606075087,1.0,0.21333777212150173,1.0
3.800000000000002,-0.05146325339786194,43.69162339320114,-0.01265448828044053,21.80396844960472,1.5692746784139269,-0.0007892135961808144,-0.002102023778634665,6822541.609179828,0.10654269948058293,1.0,0.21308539896116585,1.0
3.900000000000002,-0.05260205720061717,45.93080578475223,-0.0113880380275523,22.391823915510923,1.5691936487048677,-0.0008102970905926376,-0.0021112582346687336,6819423.655013256,0.10640012903562336,1.0,0.21280025807124672,1.0
4.000000000000002,-0.053601273410920684,48.22884741077847,-0.009992162103035156,22.980416260262427,1.5691105133926373,-0.0008313531223062732,-0.0021206254335195407,6816305.700842885,0.10624121538282849,1.0,0.21248243076565698,1.0
4.100000000000001,-0.05444759949793075,50.585822076616665,-0.008463260870100653,23.569746658381966,1.5690252755481118,-0.000852378445251937,-0.002130124283463264,6813187.746668333,0.10606600220599041,1.0,0.21213200441198082,1.0
4.200000000000001,-0.05512737297883086,53.00180370514587,-0.006797734809001086,24.159816285292052,1.5689379385660291,-0.0008733698208260807,-0.0021397535567053705,6810069.79248922,0.10587453620779638,1.0,0.21174907241559274,1.0
4.300000000000001,-0.05562657148399933,55.47686633687453,-0.004991985051684751,24.750626317286606,1.568848506164179,-0.0008943240184989919,-0.0021495118897587595,6806951.83830517,0.10566686710127976,1.0,0.2113337342025595,1.0
4.4,-0.05593081287563671,58.01108413002482,-0.0030424139163737927,25.342177931502885,1.5687569823825371,-0.0009152378164211117,-0.0021593977838565426,6803833.884115808,0.10544304760074953,1.0,0.21088609520149906,1.0
4.5,-0.05602535541983341,60.604531360614196,-0.0009454254419669714,25.934472305893735,1.5686633715823344,-0.0009361080020279454,-0.0021694096054025724,6800715.929920766,0.10520313341210989,1.0,0.21040626682421976,1.0
4.6,-0.055895098012050295,63.25728242253422,0.0013025740778311308,26.52751061920019,1.5685676784450697,-0.000956931372643459,-0.002179545586454612,6797597.975719677,0.10494718322265574,1.0,0.20989436644531148,1.0
4.699999999999999,-0.05552458045597488,65.96941182762666,0.0037051755607541473,27.121294050924423,1.5684699079714617,-0.0009777047360818422,-0.002189803825243919,6794480.021512182,0.10467525869029759,1.0,0.20935051738059518,1.0
4.799999999999999,-0.05489798379570599,68.74099420575696,0.006265966602688853,27.715823781303094,1.5683700654803372,-0.0009984249112475205,-0.002200182286731467,6791362.067297923,0.10438742443221061,1.0,0.2087748488644212,1.0
4.899999999999999,-0.05399913070120991,71.57210430488507,0.00898853094496086,28.311100991281073,1.5682681566074637,-0.0010190887287333083,-0.002210678803197696,6788244.113076549,0.10408374801296094,1.0,0.20816749602592186,1.0
4.999999999999998,-0.05281148590698088,74.46281699113364,0.011876447942290343,28.90712686248562,1.568164187304322,-0.0010396930314165791,-0.0022212910748689034,6785126.158847711,0.1037642999320369,1.0,0.2075285998640738,1.0
5.099999999999998,-0.05131815670382933,77.41320724885374,0.014933292031515484,29.503902577200957,1.5680581638368165,-0.0010602346750533504,-0.0022320166705773747,6782008.204611069,0.10342915361087068,1.0,0.20685830722174137,1.0
5.1999999999999975,-0.04950189348371099,80.42335018068808,0.01816263220118339,30.10142931834335,1.5679500927839294,-0.001080710528870156,-0.0022428530284579473,6778890.250366284,0.10307838537928195,1.0,0.2061567707585639,1.0
5.299999999999997,-0.04734509033750024,83.49332100763174,0.021568031462107486,30.699708269436613,1.567839981036314,-0.0011011174761536072,-0.0022537974566789742,6775772.296113025,0.1027120744613931,1.0,0.2054241489227862,1.0
5.399999999999997,-0.04482978570560121,86.62319506909056,0.0251530463189903,31.298740614588155,1.5677278357948299,-0.0011214524148375157,-0.0022648471342079373,6772654.341850969,0.10233030296097984,1.0,0.20466060592195964,1.0
5.4999999999999964,-0.04193766308128016,89.81304782293711,0.028921226243210498,31.8985275384655,1.5676136645690213,-0.0011417122580874768,-0.002275999111612359,6769536.387579794,0.1019331558463117,1.0,0.2038663116926234,1.0
5.599999999999996,-0.03865005176659288,93.06295484556445,0.03287611314687286,32.499070226273375,1.567497475175533,-0.001161893934882792,-0.002287250311894695,6766418.433299188,0.10152072093441836,1.0,0.20304144186883671,1.0
5.699999999999996,-0.03494792768077089,96.37299183193758,0.03702124085821993,33.1003698637313,1.5673792757364733,-0.0011819943905956294,-0.0022985975313618563,6763300.479008842,0.10109308887485802,1.0,0.20218617774971603,1.0
5.799999999999995,-0.030811914220920403,99.74323459564276,0.04136013459850485,33.702427637051784,1.567259074677717,-0.001202010587567297,-0.0023100374405291557,6760182.524708457,0.10065035313291294,1.0,0.20130070626582588,1.0
5.899999999999995,-0.026222283174878187,103.17375906893467,0.04589631046042214,34.30524473291908,1.5671368807271486,-0.001221939505681534,-0.0023215665850582212,6757064.570397739,0.1001926099722989,1.0,0.2003852199445978,1.0
5.999999999999995,-0.02115895568605849,106.66464130278152,0.050633274888196966,34.90882233846853,1.5670127029128553,-0.0012417781429346975,-0.002333181386728666,6753946.6160764005,0.09971995843731599,1.0,0.19943991687463197,1.0
6.099999999999994,-0.015601503270115606,110.21595746690818,0.05557452415942885,35.51316164126657,1.5668865505612548,-0.0012615235160027417,-0.0023448781444430633,6750828.661744161,0.09923250033449366,1.0,0.1984650006689873,1.0
6.199999999999994,-0.00952914888323661,113.8277838498373,0.060723543868789955,36.11826382929128,1.5667584332951745,-0.0012811726608048793,-0.00235665303526722,6747710.707400748,0.09873034021371728,1.0,0.19746068042743456,1.0
6.299999999999994,-0.0029207680418691217,117.50019685892867,0.06608380841367488,36.724130090913675,1.566628361031868,-0.0013007226330638152,-0.0023685021155011032,6744592.753045895,0.09821358534882671,1.0,0.19642717069765342,1.0
6.399999999999993,0.004245110006320823,121.23327302041663,0.07165878048189944,37.33076161487958,1.5664963439809816,-0.0013201705088624473,-0.0023804213217857306,6741474.798679345,0.09768234571771982,1.0,0.19536469143543964,1.0
6.499999999999993,0.011990301060475474,125.02708897944585,0.07745191054154651,37.938159590292216,1.566362392642462,-0.0013395133851969226,-0.002392406472239372,6738356.844300848,0.09713673398192892,1.0,0.19427346796385783,1.0
6.5999999999999925,0.02033696469378101,128.88172150010539,0.08346663633305537,38.54632520659548,1.5662265178044092,-0.0013587483805259544,-0.0024044532676308346,6735238.889910161,0.09657686546572936,1.0,0.1931537309314587,1.0
6.699999999999992,0.029307602930146275,132.79724746546117,0.08970638236365261,39.15525965355791,1.5660887305408775,-0.0013778726353162749,-0.0024165572925807237,6732120.935507048,0.09600285813470054,1.0,0.19200571626940108,1.0
6.799999999999992,0.03892505887056823,136.7737438775869,0.09617455940421954,39.76496412125735,1.5659490422096194,-0.0013968833125841398,-0.002428714016797784,6729002.981091284,0.09541483257382649,1.0,0.19082966514765298,1.0
6.8999999999999915,0.04921251526943772,140.81128785759353,0.10287456398869492,40.37543980006638,1.5658074644497761,-0.0014157775984327634,-0.0024409187963467804,6725885.02666265,0.09481291196509145,1.0,0.1896258239301829,1.0
6.999999999999991,0.06019349306104839,144.9099566456574,0.10980977791610669,40.986687880638485,1.5656640091795175,-0.0014345527025855927,-0.002453166874945678,6722767.0722209355,0.09419722206459114,1.0,0.18839444412918227,1.0
7.099999999999991,0.07189184983658135,149.06982760104688,0.11698356775532961,41.59870955389494,1.565518688593626,-0.0014532058589153114,-0.0024654533852976894,6719649.117765939,0.09356789117916785,1.0,0.1871357823583357,1.0
7.19999999999999,0.08433177827184773,153.29097820214812,0.12439928435266374,42.211506011012496,1.5653715151610292,-0.0014717343259684746,-0.002477773350451518,6716531.163297467,0.09292505014254869,1.0,0.18585010028509738,1.0
7.29999999999999,0.09753780450608072,157.5734860464893,0.13206026234232993,42.82507844341183,1.565222501622281,-0.0014901353874856697,-0.002490121685194246,6713413.208815335,0.09226883229103076,1.0,0.18453766458206153,1.0
7.39999999999999,0.11153478647207822,161.917428850764,0.13996981965997493,43.43942804274678,1.565071660986989,-0.0015084063529171108,-0.002502493197473532,6710295.254319369,0.09159937343868693,1.0,0.18319874687737386,1.0
7.499999999999989,0.12634791217800645,166.32288445085342,0.14813125705928226,44.05455600089439,1.564919006531196,-0.0015265445579335573,-0.0025148825898502203,6707177.299809399,0.09091681185210808,1.0,0.18183362370421616,1.0
7.599999999999989,0.14200269794118456,170.789930801848,0.15654785763178117,44.670463509945705,1.5647645517947024,-0.0015445473649324673,-0.0025272844609820484,6704059.3452852685,0.09022128822468478,1.0,0.18044257644936956,1.0
7.699999999999989,0.1585249865741794,175.31864597806774,0.1652228863299485,45.2871517621975,1.5646083105783488,-0.0015624121635392822,-0.0025396933071346606,6700941.390746828,0.08951294565044514,1.0,0.17902589130089028,1.0
7.799999999999988,0.1759409455235488,179.90910817308222,0.174159589493694,45.904621950144715,1.5644502969412382,-0.0015801363711037517,-0.0025521035237243694,6697823.436193937,0.08879192959743332,1.0,0.17758385919486663,1.0
7.899999999999988,0.19427706496158134,184.5613956997296,0.1833611943803254,46.52287526647376,1.5642905251979193,-0.0015977174331911917,-0.0025645094068877934,6694705.481626465,0.08805838788062927,1.0,0.1761167757612585,1.0
7.999999999999988,0.21356015583138935,189.27558699013525,0.19283090869808006,47.14191290405671,1.5641290099155123,-0.0016151528240686004,-0.002576905155081466,6691587.52704429,0.08731247063447306,1.0,0.17462494126894612,1.0
8.099999999999987,0.23381734784572134,194.0517605957299,0.20257192014331982,47.76173605594626,1.5639657659107937,-0.0016324400471855183,-0.0025892848707094185,6688469.572447298,0.08655433028490735,1.0,0.1731086605698147,1.0
8.199999999999987,0.2550760874398689,198.88999518726706,0.21258739594147605,48.38234591537162,1.5638008082472288,-0.0016495766356495504,-0.002601642561777196,6685351.617835387,0.08578412152101551,1.0,0.171568243042031,1.0
8.299999999999986,0.2773641356790526,203.7903695548406,0.22288048239183686,49.00374367573523,1.5636341522319592,-0.001666560152696459,-0.0026139721435767256,6682233.663208461,0.0850020012662459,1.0,0.1700040025324918,1.0
8.399999999999986,0.30070956612067923,208.75296260790162,0.23345430441626625,49.625930530610304,1.5634658134127437,-0.001683388192154735,-0.0026262674403947357,6679115.7085664375,0.08420812864919473,1.0,0.16841625729838944,1.0
8.499999999999986,0.3251407626318737,213.77785337527555,0.24431196511194472,50.248907673739325,1.5632958075748535,-0.0017000583789045511,-0.0026385221872500253,6675997.753909239,0.08340266497399247,1.0,0.16680532994798494,1.0
8.599999999999985,0.3506864171626955,218.86512100517888,0.25545654530821815,50.87267629903335,1.56312415073792,-0.0017165683693310238,-0.002650730031657167,6672879.7992368,0.08258577369028018,1.0,0.16517154738056036,1.0
8.699999999999985,0.3773755274754601,224.0148447652361,0.26689110312764586,51.497237600572234,1.562950859152743,-0.0017329158517716803,-0.0026628845354155217,6669761.844549063,0.08175762036278679,1.0,0.16351524072557358,1.0
8.799999999999985,0.4052373948305933,229.22710404249665,0.2786186735513316,52.1225927726057,1.562775949298047,-0.0017490985469580565,-0.002674979176424897,6666643.889845979,0.08091837264051555,1.0,0.1618367452810311,1.0
