t[s],x[m],y[m],vx[m/s],vy[m/s],mass[kg]
0.1,1.277638584592315e-17,1.6105877614964477,1.277638584592315e-16,1.1058776149644771,5518563.309723058
0.2,0.00041675441674458597,1.8318892659174943,0.004167544167445731,2.213015044210467,5515205.522428653
0.30000000000000004,0.0016037919756498467,2.164029174373003,0.011870375589052608,3.321399084555087,5511847.761748234
0.4,0.0036403332101395632,2.607134172190145,0.020365412344897166,4.431049978171424,5508490.010354249
0.5,0.00655380040267059,3.161331652547127,0.02913467192531026,5.541974803569818,5505132.2640662035
0.6,0.010327996962926767,3.8267496857480534,0.03774196560256177,6.654180332009265,5501774.518988174
0.7,0.014905469696200546,4.603516993039282,0.04577472733273778,7.7676730729122845,5498416.771366769
0.7999999999999999,0.02019074714954649,5.491762865989328,0.05285277453345946,8.88245872950046,5495059.01805343
0.8999999999999999,0.026054532277672723,6.491617045788375,0.05863785128126232,9.998541797990464,5491701.25684729
0.9999999999999999,0.03233866260396372,7.603209582383615,0.06284130326291001,11.1159253659524,5488343.486671163
1.0999999999999999,0.03886163242955905,8.826670693600327,0.06522969825595328,12.23461111216713,5484985.70758171
1.2,0.04542446834101976,10.162130642100308,0.06562835911460706,13.354599484999808,5481627.920635393
1.3,0.05181675256382803,11.60971964387581,0.0639228422280827,14.475890017755015,5478270.127646185
1.4000000000000001,0.05782259863599538,13.169567816693299,0.0600584607216735,15.598481728174885,5474912.330879126
1.5000000000000002,0.06322639890502127,14.841805171257436,0.05403800269025899,16.722373545641375,5471554.532725514
1.6000000000000003,0.06781818292402018,16.62656164256867,0.045917840189989206,17.847564713112362,5468196.735401636
1.7000000000000004,0.07139844900629813,18.52396715457379,0.0358026608227795,18.974055120051197,5464838.940704493
1.8000000000000005,0.0737823570239022,20.53415170815126,0.023839080176040757,20.1018455357747,5461481.149846794
1.9000000000000006,0.07480319802128571,22.65724548092131,0.010208409973835078,21.230937727700496,5458123.363381077
2.0000000000000004,0.07431508439288842,24.893378927313783,-0.0048811362839728395,22.36133446392472,5454765.581210927
2.1000000000000005,0.07219483232182608,27.242682868582197,-0.02120252071062342,23.493039412684126,5451407.802677199
2.2000000000000006,0.06834303504708941,29.705288564709292,-0.03851797274736664,24.626056961270944,5448050.02669979
2.3000000000000007,0.06268435056389181,32.28132776302171,-0.056586844831975985,25.76039198312413,5444692.251951497
2.400000000000001,0.055176589361609005,34.97093275439365,-0.07507761202282799,26.89604991371943,5441334.477039714
2.500000000000001,0.04582731770497217,37.77423645264394,-0.09349271656636833,28.03303698250289,5437976.70069348
2.600000000000001,0.03466075811812042,40.69137227761267,-0.11166559586851746,29.171358249687277,5434618.921945643
2.700000000000001,0.021717706617528774,43.72247411124302,-0.12943051500591646,30.311018336303444,5431261.140178067
2.800000000000001,0.007050578716423311,46.867676236766,-0.14667127901105462,31.452021255229845,5427903.355109483
2.9000000000000012,-0.00927644357664309,50.127113298188654,-0.163270222930664,32.59437061422654,5424545.566771827
3.0000000000000013,-0.02719333002962231,53.500920232246706,-0.1791688645297922,33.738069340580545,5421187.775458183
3.1000000000000014,-0.04662379955228893,56.98923225604906,-0.19430469522666616,34.88312023802354,5417829.981646632
3.2000000000000015,-0.06749010425463461,60.592184817995026,-0.20866304702345678,36.02952561945966,5414472.185917494
3.3000000000000016,-0.08972087307847593,64.3099135451711,-0.22230768823841313,37.17728727176076,5411114.388871351
3.4000000000000017,-0.11324398589949752,68.14255428508115,-0.23523112821021594,38.32640739910043,5407756.591056665
3.5000000000000018,-0.13799363388724778,72.0902430726455,-0.2474964798775027,39.476887875643655,5404398.792922635
3.600000000000002,-0.16391195148448942,76.15311613209722,-0.2591831759724164,40.62873059451712,5401040.994789169
3.700000000000002,-0.19095079667900047,80.33130987954922,-0.2703884519451106,41.78193747451995,5397683.1968385335
3.800000000000002,-0.21907407737336393,84.62496092098958,-0.28123280694363456,42.93651041440354,5394325.399127754
3.900000000000002,-0.24825801757913343,89.03420606063005,-0.2918394020576951,44.09245139640475,5390967.60161654
4.000000000000002,-0.27849067710096204,93.55918231034826,-0.302326595218286,45.24976249718215,5387609.8042042
4.100000000000001,-0.30977137693174817,98.2000268955722,-0.312806998307861,46.40844585223926,5384252.0067684045
4.200000000000001,-0.3421100685379608,102.95687725755525,-0.32338691606212633,47.568503619830494,5380894.209200449
4.300000000000001,-0.3755262455701042,107.82987105551473,-0.33416177032143446,48.72993797959477,5377536.41143306
4.4,-0.4100475027782782,112.81914616913879,-0.3452125720817397,49.89275113624063,5374178.61345791
4.5,-0.4457079586573694,117.92484070134675,-0.35660455879091213,51.05694532207959,5370820.815331804
4.6,-0.4825464053354827,123.14709298355439,-0.36838446678113296,52.22252282207636,5367463.017172209
4.699999999999999,-0.5206043996684557,128.48604158307487,-0.3805799433297302,53.38948599520467,5364105.219144078
4.799999999999999,-0.5599244252990254,133.94182531250303,-0.39320025630569655,54.55783729428164,5360747.421440822
4.899999999999999,-0.6005478008984234,139.5145832437846,-0.40623375599397943,55.727579312816,5357389.624262629
4.999999999999998,-0.6425129481072815,145.20445472257856,-0.4196514720885812,56.898714787939525,5354031.827795336
5.099999999999998,-0.685853726795928,151.01157938462475,-0.4334077868864654,58.07124662046194,5350674.032192533
5.1999999999999975,-0.7305976519478232,156.93609717490736,-0.44743925151895153,59.24517790282606,5347316.237562714
5.299999999999997,-0.7767645528511476,162.97814836467765,-0.4616690090332442,60.42051189770291,5343958.443962849
5.399999999999997,-0.8243652767510581,169.13787356844662,-0.47600723899910397,61.59725203768973,5340600.651398423
5.4999999999999964,-0.873403402042271,175.41541373728987,-0.4903812529121284,62.77540168843241,5337242.859829343
5.599999999999996,-0.9238758409388736,181.8109101594062,-0.5047243889660264,63.954964221163415,5333885.069177306
5.699999999999996,-0.9757699437684668,188.32450448700413,-0.5189410282959321,65.1359432759793,5330527.27933396
5.799999999999995,-1.0290714389285087,194.9563386756989,-0.5330149516004179,66.3183418869477,5327169.490175035
5.899999999999995,-1.0837450464247,201.70655514136416,-0.5467360749619121,67.50216465665262,5323811.701564951
5.999999999999995,-1.1397506240139346,208.57529662886472,-0.5600557758923447,68.6874148750055,5320453.913385325
6.099999999999994,-1.1970392452143601,215.56270624117465,-0.5728862120042547,69.87409612309938,5317096.125545251
6.199999999999994,-1.2555508295356104,222.66892745556464,-0.585115843212503,71.0622121439,5313738.337982046
6.299999999999994,-1.3152296664985066,229.8941039909851,-0.596788369628962,72.25176535420455,5310380.550674451
6.399999999999993,-1.376021178143382,237.23837983176398,-0.6079151164487541,73.44275840778882,5307022.763629466
6.499999999999993,-1.4378639374782898,244.70189929151678,-0.6184275933490785,74.63519459752789,5303664.976872032
6.5999999999999925,-1.5006916911441537,252.28480699246361,-0.6282775366586383,75.82907700946824,5300307.190457431
6.699999999999992,-1.5644487454629643,259.98724773361226,-0.6375705431881068,77.02440741148635,5296949.404478343
6.799999999999992,-1.6290695933569412,267.8093666596068,-0.6462084789397703,78.22118925994532,5293591.619042786
6.8999999999999915,-1.694488735031296,275.7513091749084,-0.6541914167435472,79.419425153016,5290233.834285583
6.999999999999991,-1.7606412737863537,283.81322093565484,-0.6615253875505772,80.61911760746472,5286876.050376441
7.099999999999991,-1.8274632585760957,291.99524784425074,-0.6682198478974208,81.82026908595878,5283518.267511892
7.19999999999999,-1.8948944019370442,300.2975360246987,-0.6743114336094848,83.02288180447918,5280160.485914075
7.29999999999999,-1.962881056308381,308.7202317972407,-0.6798665437133674,84.2269577254199,5276802.705824882
7.39999999999999,-2.0313774590653386,317.2634822008876,-0.6849640275695775,85.43250403646918,5273444.927493424
7.499999999999989,-2.100339906429986,325.927434002405,-0.6896244736464767,86.63951801517396,5270087.151160989
7.599999999999989,-2.1697259613698177,334.7122342128444,-0.693860549398317,87.84800210439431,5266729.377058277
7.699999999999989,-2.239492481752425,343.6180301043407,-0.6976652038260707,89.05795891496263,5263371.605405082
7.799999999999988,-2.30959308353498,352.6449692307016,-0.7010060178255481,90.26939126360897,5260013.836408291
7.899999999999988,-2.3799810209039483,361.79319940447255,-0.7038793736896822,91.48230173770965,5256656.070265195
7.999999999999988,-2.4506071185075626,371.0628687140876,-0.7062609760361456,92.69669309615043,5253298.307158203
8.099999999999987,-2.521418386702639,380.45412553501484,-0.7081126819507636,93.91256820927231,5249940.547251754
8.199999999999987,-2.5923597317652436,389.9671185163995,-0.7094134506260457,95.12992981384657,5246582.790697209
8.299999999999986,-2.663372724337649,399.6019965907295,-0.7101299257240522,96.34878074330022,5243225.037631404
8.399999999999986,-2.734395421923691,409.358908974892,-0.7102269758604187,97.56912384162516,5239867.288177368
8.499999999999986,-2.8053615190544114,419.23800517556174,-0.7096609713072073,98.7909620066972,5236509.542448732
8.599999999999985,-2.8762020213623964,429.2394349752545,-0.7084050230798513,100.01429799692733,5233151.800555923
8.699999999999985,-2.9468429318952793,439.3633484474933,-0.7064091053288268,101.23913472238803,5229794.062607326
8.799999999999985,-3.017208735262636,449.60989592909084,-0.7036580336735679,102.46547481597551,5226436.328717231
8.899999999999984,-3.0872209839721547,459.97922802845807,-0.7001224870951865,103.69332099367236,5223078.599004894
8.999999999999984,-3.1567978583360996,470.4714956261913,-0.6957687436394476,104.9226759773323,5219720.873594683
9.099999999999984,-3.2258547008463387,481.0868498680534,-0.6905684251023931,106.15354241862093,5216363.152623983
9.199999999999983,-3.29430430160754,491.82544215952424,-0.6844960076120129,107.38592291470879,5213005.436246897
9.299999999999983,-3.362057282095862,502.68742415968137,-0.6775298048832158,108.619820001571,5209647.724635945
9.399999999999983,-3.4290231770520325,513.672947770851,-0.6696589495617058,109.85523611169612,5206290.017983074
9.499999999999982,-3.495109766506224,524.7821651400501,-0.6608658945419177,111.09217369199037,5202932.316496555
9.599999999999982,-3.5602246141068203,536.0152286466694,-0.6511484760059613,112.33063506619308,5199574.620401163
9.699999999999982,-3.6242758679877585,547.3722908961764,-0.6405125388093794,113.57062249507035,5196216.929933669
9.799999999999981,-3.6871729454681126,558.8535047161143,-0.6289707748035418,114.81213819937958,5192859.245332918
9.89999999999998,-3.748826926246916,570.4590231553175,-0.6165398077880321,116.05518439203088,5189501.566829566
9.99999999999998,-3.8102671053881942,582.1889935551342,-0.6144017914127833,117.29970399816695,5186143.894635409
10.09999999999998,-3.8714095148918757,594.0435703121244,-0.6114240950368138,118.54576756990255,5182786.223533118
10.19999999999998,-3.9321356283919773,606.0229087055634,-0.607261135001017,119.79338393439036,5179428.548677429
10.29999999999998,-3.992311555120621,618.1271644867462,-0.6017592672864387,121.04255781182782,5176070.868461129
10.399999999999979,-4.051791437255621,630.3564937936555,-0.5947988213499948,122.29329306909383,5172713.181854195
10.499999999999979,-4.110420392312537,642.7110530804944,-0.5862895505691577,123.54559286838769,5169355.488294556
10.599999999999978,-4.168037467267667,655.190999054842,-0.5761707495513035,124.79945974347656,5165997.7876447635
10.699999999999978,-4.224478530005,667.796488624972,-0.5644106273733327,126.0548957012998,5162640.080132334
10.799999999999978,-4.279579012292955,680.5276788588703,-0.5510048228795463,127.31190233898387,5159282.366280194
10.899999999999977,-4.333176428608706,693.3847269552143,-0.5359741631575106,128.57048096344002,5155924.646835917
10.999999999999977,-4.385112607566978,706.367790225494,-0.519361789582723,129.83063270279715,5152566.922706675
11.099999999999977,-4.435235586281443,719.4770260856873,-0.5012297871446538,131.09235860193255,5149209.194904559
11.199999999999976,-4.4834011321581775,732.712592055457,-0.48165545876734156,132.35565969769667,5145851.464504427
11.299999999999976,-4.529473870901155,746.0746457627206,-0.46072738742977554,133.62053707263604,5142493.732614208
11.399999999999975,-4.573328013440733,759.5633449515948,-0.4385414253957778,134.8869918887416,5139136.000355798
11.499999999999975,-4.614847687662532,773.1788474920689,-0.415196742217994,136.15502540474114,5135778.268853485
11.599999999999975,-4.653926892854887,786.9213113902284,-0.39079205192354977,137.42463898159508,5132420.539226331
11.699999999999974,-4.690469105408285,800.7908947983433,-0.3654221255339779,138.695834081149,5129062.8125810465
11.799999999999974,-4.724386573256683,814.7877560245884,-0.33917467848398264,139.96861226245093,5125705.090002531
11.899999999999974,-4.755599343684032,828.9120535425126,-0.312127704273484,141.24297517924182,5122347.372540243
11.999999999999973,-4.784034074334768,843.1639460005922,-0.28434730650736223,142.51892458079666,5118989.661189731
12.099999999999973,-4.809622680536837,857.543592232279,-0.255886062020691,143.79646231686823,5115631.956869826
12.199999999999973,-4.8323008734055595,872.0511512668963,-0.2267819286872245,145.0755903461735,5112274.260396964
12.299999999999972,-4.852006642739812,886.6867823415796,-0.1970576933425222,146.3563107468326,5108916.5724588465
12.399999999999972,-4.8686787365924795,901.4506449142322,-0.1667209385266746,147.63862572652562,5105558.893589987
12.499999999999972,-4.882255185781548,916.3428986772238,-0.1357644918906891,148.922537629917,5102201.224151701
12.599999999999971,-4.892671916726689,931.3637035713327,-0.1041673094514102,150.20804894108946,5098843.564318757
12.69999999999997,-4.899861490093238,946.5132197992586,-0.07189573366548632,151.49516227925915,5095485.914074331
12.79999999999997,-4.903751996060471,961.7916078379394,-0.038905059672334937,152.78388038680754,5092128.273214118
12.89999999999997,-4.9042661298690255,977.1990284488933,-0.005141338085546468,154.07420610953847,5088770.641359654
12.99999999999997,-4.901320463905056,992.7356426858864,0.02945665963969503,155.36614236993114,5085413.017980095
13.09999999999997,-4.8948249251970015,1008.4016118993767,0.06495538708054603,156.65969213490263,5082055.402421029
13.199999999999969,-4.884682480066922,1024.1970977373903,0.10142445130079292,157.95485838013641,5078697.793938416
13.299999999999969,-4.8707890210002915,1040.1222621427232,0.1389345906663039,159.25164405333007,5075340.191735432
13.399999999999968,-4.853033444754625,1056.1772673465982,0.17755576245666232,160.55005203874998,5071982.5949999755
13.499999999999968,-4.831297905464339,1072.3622758591257,0.21735539290285416,161.85008512527565,5068625.002940701
13.599999999999968,-4.805458222127645,1088.677450457097,0.25839683336694547,163.15174597971313,5065267.414819746
13.699999999999967,-4.775384416455777,1105.122954169759,0.30073805671867576,164.45503712661946,5061909.829980746
13.799999999999967,-4.740941354664387,1121.6989502632869,0.3444306179139024,165.7599609352783,5058552.247871185
13.899999999999967,-4.701989465395553,1138.4056022246737,0.3895188926883384,167.06651961386774,5055194.668058623
13.999999999999966,-4.658385505548702,1155.2430737457064,0.43603959846851614,168.37471521032745,5051837.090240753
14.099999999999966,-4.609983346312496,1172.211528707607,0.48402159236206255,169.68454961900517,5048479.514249632
14.199999999999966,-4.556634753045078,1189.3111311667942,0.5334859326741793,170.99602459187392,5045121.940050664
14.299999999999965,-4.4981901347437505,1206.542045342091,0.5844461830132737,172.30914175296576,5041764.367737118
14.399999999999965,-4.434499241557866,1223.904435603557,0.6369089318588433,173.6239026146607,5038406.797521005
14.499999999999964,-4.365411792000045,1241.3984664630148,0.6908744955782071,174.94030859457726,5035049.229721158
14.599999999999964,-4.290778005144242,1259.0243050780805,0.7463378685580314,176.25838615065845,5031691.664749265
14.699999999999964,-4.210449063507882,1276.7821162608523,0.8032894163635971,177.57811182771704,5028334.103094408
14.799999999999963,-4.124277448156292,1294.6720649464014,0.8617161535159035,178.89948685549092,5024976.54530707
14.899999999999963,-4.03211717513281,1312.6943161889053,0.9216027302348154,180.22251242503947,5021618.991982684
14.999999999999963,-3.9338239251420526,1330.8490351586813,0.9829324999075758,181.54718969775902,5018261.443745045
15.099999999999962,-3.8292550704057207,1349.1363871399012,1.04568854736332,182.87351981219953,5014903.90123009
15.199999999999962,-3.718269605318436,1367.5565375287902,1.1098546508728466,184.20150388889047,5011546.365070234
15.299999999999962,-3.600727990098994,1386.10965183213,1.1754161521944217,185.53114303340007,5008188.835879527
15.399999999999961,-3.4764919187332066,1404.7958956659159,1.242360713657874,186.8624383378569,5004831.314239895
15.499999999999961,-3.3454240240953896,1423.6154347540296,1.3106789463781698,188.19539088113697,5001473.80068873
15.59999999999996,-3.207387534202309,1442.5684349268172,1.3803648989308068,189.53000172787546,4998116.295708117
15.69999999999996,-3.062245894099819,1461.6550621194585,1.4514164010249004,190.86627192641453,4994758.799715972
15.79999999999996,-2.9098623679285027,1480.8754823700344,1.5238352617131634,192.20420250575876,4991401.313059334
15.89999999999996,-2.7500996352948452,1500.229861817193,1.5976273263365757,193.54379447158524,4988043.836010029
15.99999999999996,-2.582819395235741,1519.718366697328,1.6728024005910447,194.88504880135105,4984686.368762827
16.09999999999996,-2.407881989863174,1539.3411633411836,1.7493740537256695,196.22796643855588,4981328.911436151
16.19999999999996,-2.2251460582770037,1559.0984181698086,1.827359315861702,197.57254828624946,4977971.464075285
16.29999999999996,-2.0344682296060426,1578.9902976898002,1.9067782867096112,198.91879519991514,4974614.026657935
16.399999999999963,-1.8357028621524956,1599.0169684877908,1.9876536745354687,200.266707979906,4971256.599101883
16.499999999999964,-1.6287018336436436,1619.1785972241557,2.0700102850885194,201.61628736365003,4967899.181274406
16.599999999999966,-1.413314385606349,1639.4753506259428,2.1538744803729464,202.96753401787012,4964541.773003045
16.699999999999967,-1.1893870229391812,1659.9073954790506,2.2392736266716775,204.32044853107703,4961184.374087271
16.79999999999997,-0.9567634679219563,1680.4748986197094,2.3262355501722487,205.6750314065884,4957826.984310576
16.89999999999997,-0.7152846662243174,1701.1780269253395,2.414788016976389,207.03128305630077,4954469.603452495
16.99999999999997,-0.46478884099566015,1722.0169473048795,2.5049582522865728,208.38920379539996,4951112.231300149
17.099999999999973,-0.20511158987121625,1742.9918266886934,2.596772511244439,209.74879383813953,4947754.867658869
17.199999999999974,0.06391398126358616,1764.1028320181688,2.690255711348024,211.11005329475256,4944397.5123616
17.299999999999976,0.34245709463288776,1785.3501302351183,2.7854311336930158,212.47298216949605,4941040.165276804
17.399999999999977,0.6306891143892732,1806.7338882710947,2.8823201975638537,213.83758035976348,4937682.826314687
17.49999999999998,0.9287833454126111,1828.254273036709,2.9809423102333787,215.2038476561448,4934325.495431649
17.59999999999998,1.236914824542109,1849.911451411036,3.081314791294979,216.57178374326955,4930968.172632925
17.69999999999998,1.555260111394243,1871.70559023116,3.1834528685213392,217.9413882012382,4927610.857973466
17.799999999999983,1.8839970854120323,1893.636856281903,3.2873697401778914,219.31266050743136,4924253.551557142
