t[s],x[m],y[m],vx[m/s],vy[m/s],mass[kg]
36.200000000000244,304.43896964874625,6885.3319524375565,38.00338410175528,311.29432803215366,4544409.581216425
36.300000000000246,308.27219294909884,6916.512185564663,38.332233003525936,311.80233127106925,4542394.186794756
36.40000000000025,312.13848439471326,6947.743407908792,38.662914456144506,312.312223441284,4540376.892303071
36.50000000000025,316.03802797010286,6979.02580888754,38.99543575389601,312.8240097874854,4538357.690863094
36.60000000000025,319.971008411239,7010.359578500882,39.32980441136101,313.33769613341775,4536336.574807931
36.70000000000025,323.9376112251725,7041.744907385188,39.666028139334706,313.8532888430579,4534313.5357394265
36.80000000000025,327.93802270689827,7073.181986863852,40.00411481725766,314.37079478664975,4532288.564580507
36.900000000000254,331.972429953419,7104.671008994906,40.344072465207184,314.8902213105317,4530261.651622941
37.000000000000256,336.04102087522034,7136.212166615889,40.68590921801353,315.4115762098393,4528232.786570923
37.10000000000026,340.1439842055619,7167.805653386223,41.02963330341511,315.9348677033385,4526201.958580797
37.20000000000026,344.2815095081069,7199.451663827207,41.375253025450384,316.4601044098424,4524169.1562972125
37.30000000000026,348.45378718346467,7231.150393359792,41.72277675357737,316.9872953258507,4522134.367885981
37.40000000000026,352.6610084752034,7262.902038340215,42.072212917387304,317.51644980422225,4520097.581063847
37.50000000000026,356.90336547583115,7294.706796093597,42.42357000627746,318.0475775338299,4518058.783125422
37.600000000000264,361.18105113314107,7326.564864945622,42.77685657309944,318.58068852024553,4516017.960967465
37.700000000000266,365.494259257202,7358.476444252378,43.132081240608976,319.11579306756846,4513975.1011107415
37.80000000000027,369.8431845281519,7390.441734428532,43.48925270949901,319.6529017615359,4511930.189719631
37.90000000000027,374.22802250484,7422.460936973936,43.84837976688128,320.19202545404556,4509883.212619705
38.00000000000027,378.6489696342657,7454.534254498856,44.20947129425731,320.73317524919497,4507834.155313434
38.10000000000027,383.1062232616914,7486.661890747945,44.572536274257125,321.2763624908904,4505783.002994226
38.20000000000027,387.5999816412602,7518.844050623148,44.93758379568736,321.82159875203,4503729.740558943
38.300000000000274,392.1304439469291,7551.080940205669,45.30462305668922,322.3688958252074,4501674.35261906
38.400000000000276,396.69781028353304,7583.372766777153,45.67366336603919,322.91826571483506,4499616.823510611
38.50000000000028,401.30228169781384,7615.719738840207,46.04471414280782,323.46972063055034,4497557.137303032
38.60000000000028,405.94406018928623,7648.122066138381,46.417784914724045,324.0232729817385,4495495.277807026
38.70000000000028,410.62334872085256,7680.5799596756815,46.79288531566338,324.57893537299935,4493431.228581547
38.80000000000028,415.3403512291222,7713.09363173572,47.17002508269618,325.136720600385,4491364.972939977
38.90000000000028,420.0952726344323,7745.663295900545,47.54921405310151,325.69664164824485,4489296.493955576
39.000000000000284,424.8883188506015,7778.289167069199,47.93046216169171,326.25871168654294,4487225.774466257
39.100000000000286,429.7196967944718,7810.971461476052,48.31377943870329,326.8229440685333,4485152.797078756
39.20000000000029,434.58923413301164,7843.707824390086,48.69537338539854,327.3636291403326,4483077.544172222
39.30000000000029,439.497130686108,7876.498468304045,49.078965530963345,327.9064391395845,4480999.998563427
39.40000000000029,444.443621389275,7909.343828701913,49.46490703166978,328.4536039786825,4478917.310191721
39.50000000000029,449.4289433665707,7942.2443429491095,49.85321977295709,329.0051424719665,4476829.455097244
39.60000000000029,454.45333331594156,7975.200431010465,50.24389949370838,329.56088061355126,4474736.653454225
39.700000000000294,459.5170276465417,8008.212495300912,50.636943306001164,330.12064290447444,4472639.125761085
39.800000000000296,464.62026272351,8041.2809222657825,51.03235076968319,330.68426964869883,4470537.071636649
39.9000000000003,469.76327499068157,8074.406084031816,51.430122671715964,331.25161766033364,4468430.669702239
40.0000000000003,474.94630098102454,8107.588339968105,51.83025990342971,331.82255936289124,4466320.079338612
40.1000000000003,480.1695772502759,8140.828038137389,52.23276269251351,332.3969816928354,4464205.442488211
40.2000000000003,485.4333402706415,8174.125516631593,52.63763020365603,332.97478494204734,4462086.885330701
40.3000000000003,490.73782631750873,8207.481104788167,53.044860468672006,333.5558815657357,4459964.519817542
40.400000000000304,496.08327137564356,8240.8951242863,53.454450581348496,334.14019498133564,4457838.44506701
40.500000000000306,501.4699110835296,8274.367890125151,53.866397078860516,334.72765838850955,4455708.748623735
40.60000000000031,506.8979807263621,8307.899711489274,54.2806964283252,335.3182136412155,4453575.507588726
40.70000000000031,512.3677152805911,8341.490892509253,54.69734554229036,335.91181019979285,4451438.789627619
40.80000000000031,517.8793495064558,8375.141732927765,55.116342258646746,336.5084041851169,4449298.653866606
40.90000000000031,523.433118080087,8408.852528682686,55.53768573631119,337.1079575492119,4447155.151686668
41.00000000000031,529.0292557536625,8442.623572419527,55.96137673575554,337.710437368402,4445008.3274275465
41.100000000000314,534.6679975307603,8476.455153945239,56.38741777097858,338.3158152571121,4442858.219012982
41.200000000000315,540.3495788442762,8510.347560634596,56.81581313515865,338.9240668935693,4440704.85850842
41.30000000000032,546.0742357257546,8544.301077798938,57.24656881478484,339.5351716434255,4438548.272621492
41.40000000000032,551.8422049573418,8578.315989025337,57.67969231587161,340.14911226399636,4436388.483154395
41.50000000000032,557.6537242004142,8612.392576492379,58.115192430724434,340.7658746704088,4434225.507415848
41.60000000000032,563.509032097902,8646.53112126691,58.55307897487786,341.3854477453085,4432059.358598809
41.70000000000032,569.4083683500847,8680.731903584468,58.99336252182743,342.0078231755886,4429890.046128648
41.800000000000324,575.3519737659633,8714.995203114713,59.43605415878566,342.63299530244285,4427717.575985174
41.900000000000325,581.3400902940407,8749.321299212163,59.88116528077418,343.2609609744995,4425541.951000768
42.00000000000033,587.3729610374179,8783.710471151906,60.32870743377198,343.8917193974291,4423363.171136074
42.10000000000033,593.4508302585327,8818.162998349593,60.77869221114818,344.52527197686976,4421181.233734066
42.20000000000033,599.5739433787162,8852.679160565043,61.23113120183457,345.16162215449407,4418996.133753031
42.30000000000033,605.7426576009374,8887.259861678549,61.68714222221155,345.80701113505773,4416807.8639788795
42.40000000000033,611.9572230171315,8921.905384331068,62.1456541619412,346.4552265251944,4414616.415052183
42.500000000000334,618.2178807146039,8956.615956589529,62.606576974724206,347.10572258460184,4412422.475612361
42.600000000000335,624.5248726759014,8991.391807384254,63.06991961297497,347.7585079472469,4410226.034506485
42.70000000000034,630.8784426244713,9026.233171614087,63.53569948569906,348.4136422983279,4408027.01676105
42.80000000000034,637.2788360177258,9061.140290301912,64.00393393254502,349.0711868782461,4405825.345852705
42.90000000000034,643.7263000017316,9096.113410279266,64.47463984005867,349.7311997735368,4403620.949392974
43.00000000000034,650.221083401111,9131.152783843063,64.94783399379301,350.39373563797665,4401413.759254439
43.10000000000034,656.7634367419053,9166.258668429706,65.42353340794251,351.05884586643555,4399203.711178504
43.200000000000344,663.3536122968128,9201.431326313004,65.90175554907525,351.7265788329801,4396990.744362536
43.300000000000345,669.9918641417165,9236.671024328452,66.38251844903684,352.39698015448073,4394774.801075306
43.40000000000035,676.6784482136075,9271.978033625595,66.86584071890984,353.0700929714334,4392555.826305316
43.50000000000035,683.413622361987,9307.352629449388,67.35174148379538,353.7459582379305,4390333.767442005
43.60000000000035,690.197646388214,9342.79509095052,67.84024026227037,354.4246150113251,4388108.573988989
43.70000000000035,697.0307820697499,9378.305701023706,68.33135681535809,355.10610073186996,4385880.197307983
43.80000000000035,703.9132931685731,9413.884746172056,68.82511098823252,355.79045148350406,4383648.590391493
43.900000000000354,710.8454454249994,9449.532516394931,69.32152256426362,356.4777022287405,4381413.707661948
44.000000000000355,717.8275065396119,9485.249305096224,69.82061114612479,357.1678870129253,4379175.504794583
44.10000000000036,724.8597461469335,9521.03540900979,70.32239607321547,357.8610391356639,4376933.93856119
44.20000000000036,731.9424357848585,9556.891128138754,70.8268963792503,358.55719128964506,4374688.966691827
44.30000000000036,739.0758488637634,9592.816765705675,71.33413078904927,359.2563756692046,4372440.547751667
44.40000000000036,746.2602606387335,9628.812628110934,71.84411774970063,359.9586240525896,4370188.6410304215
44.50000000000036,753.4956117940528,9664.877339473856,72.35351155319347,360.64711362922276,4367933.206442097
44.600000000000364,760.7821748022952,9701.011208954886,72.86563008242368,361.33869481029086,4365674.204893127
44.700000000000365,768.1202555169701,9737.214702202065,73.38080714674848,362.03493247179557,4363409.677802838
44.80000000000037,775.5101623652373,9773.488288166252,73.8990684826717,362.73585964187566,4361139.583424613
44.90000000000037,782.9522037013239,9809.83242492541,74.42041336086662,363.44136759157175,4358864.055377246
45.00000000000037,790.4466879233391,9846.247559523357,74.9448422201523,364.15134597948327,4356583.227816297
45.10000000000037,797.9939237584689,9882.734129158773,75.47235835129759,364.8656963541459,4354297.219284206
45.20000000000037,805.5942204653636,9919.292562441668,76.00296706894746,365.58433282894487,4352006.132546131
45.300000000000374,813.2478879478388,9955.92328058585,76.53667482475142,366.30718144181975,4349710.055939207
45.400000000000375,820.9552368019691,9992.626698520524,77.0734885413037,367.0341793467415,4347409.064769986
45.50000000000038,828.7165783217984,10029.403225915246,77.61341519829195,367.76527394723115,4345103.2226138655
45.60000000000038,836.5322244872949,10066.253268114277,78.1564616549659,368.5004219903073,4342792.582503374
45.70000000000038,844.402487954484,10103.177226978243,78.7026346718905,369.2395886396696,4340477.1880056765
45.80000000000038,852.3276820627541,10140.17550163351,79.25194108270126,369.98274655267437,4338157.074191756
45.90000000000038,860.3081208688949,10177.248489132317,79.80438806140756,370.7298749880625,4335832.2685011765
46.000000000000384,868.3441192120779,10214.39658502933,80.35998343182952,371.48095897014036,4333502.791507934
46.100000000000385,876.43599280926,10251.62018388242,80.91873597182183,372.23598853090124,4331168.657594422
46.20000000000039,884.5840583767166,10288.919679686958,81.48065567456584,372.99495804537673,4328829.875541866
46.30000000000039,892.7886337708009,10326.295466253794,82.04575394084257,373.7578656683604,4326486.44904647
46.40000000000039,901.050358596197,10363.749397374891,82.61724825396146,374.53931121097054,4324138.377170936
46.50000000000039,909.3695592981289,10401.28187102226,83.19200701931835,375.3247364736876,4321785.654336202
46.60000000000039,917.7465332651254,10438.89315017964,83.76973966996454,376.112791573791,4319429.957366482
46.700000000000394,926.1815789331358,10476.58349851239,84.3504566801037,376.90348332749375,4317071.2769020125
46.800000000000395,934.6749985594442,10514.35319338113,84.9341962630843,377.69694868740976,4314709.44321639
46.9000000000004,943.2270982300613,10552.202526194415,85.52099670617066,378.49332813284724,4312344.283191345
47.0000000000004,951.8381876696544,10590.131801515401,86.1108943959316,379.29275320986835,4309975.635282792
47.1000000000004,960.5085801106941,10628.14133610569,86.70392441039714,380.0953459028892,4307603.349834742
47.2000000000004,969.2385922322927,10666.231458028482,87.3001212159865,380.90121922792434,4305227.287972019
47.3000000000004,978.0285441514998,10704.402505824482,87.89951919207076,381.7104779600035,4302847.320442491
47.400000000000404,986.8787594469932,10742.654827763194,88.50215295493366,382.52321938711657,4300463.326546639
47.500000000000405,995.7895651965657,10780.988781170767,89.10805749572536,383.33953407572614,4298075.1931646755
47.600000000000406,1004.7612920129401,10819.404731834344,89.71726816374424,384.15950663576604,4295682.813878279
47.70000000000041,1013.7942740664838,10857.903053481281,90.329820535437,384.98321646937114,4293286.088182403
47.80000000000041,1022.8888490877744,10896.484127329873,90.94575021290598,385.8107384859185,4290884.920781869
47.90000000000041,1032.0456111941758,10935.149414335878,91.56762106401453,386.65287006004206,4288479.220966777
48.00000000000041,1041.2649096330745,10973.899312522513,92.19298438898797,387.49898186635374,4286068.901755293
48.10000000000041,1050.5470725209245,11012.73412498628,92.8216288785001,388.34812463767423,4283655.133500276
48.200000000000415,1059.892430826287,11051.6541608863,93.45358305362473,389.20035900019906,4281237.838948689
48.300000000000416,1069.3012938984523,11090.659759451859,94.08863072165313,390.055985655577,4278816.824739485
48.40000000000042,1078.7744251222362,11129.753077927027,94.73131223783776,390.9331847516897,4276369.634677669
48.50000000000042,1088.3126942373135,11168.936637050912,95.3826911507744,391.8355912388419,4273891.753659281
48.60000000000042,1097.9169486885448,11208.212802620092,96.04254451231286,392.76165569178386,4271385.071805996
48.70000000000042,1107.5880033844398,11247.58375182249,96.71054695894982,393.7094920239906,4268851.898061991
48.80000000000042,1117.3266421756302,11287.051489183035,97.38638791190488,394.67737360544135,4266294.351004926
48.900000000000425,1127.133619923194,11326.617865880402,98.0697774756361,395.6637669736616,4263714.319468322
49.000000000000426,1137.0096642321137,11366.284597614005,98.76044308919776,396.66731733602495,4261113.481216934
49.10000000000043,1146.9554769769773,11406.053280611639,99.45812744863656,397.6868299763458,4258493.325378103
49.20000000000043,1156.9717358069774,11445.925405842941,100.16258830000193,398.7212523130317,4255855.173057096
49.30000000000043,1167.0590957660163,11485.902371563247,100.87359959038902,399.7696572030518,4253200.195743828
49.40000000000043,1177.2181911017333,11525.985494328714,101.5909533571695,400.8312276546709,4250529.431659872
49.50000000000043,1187.449637280391,11566.176018633736,102.31446178657687,401.9052430502229,4247843.800243759
49.600000000000435,1197.7540331781092,11606.475125327557,103.04395897718152,402.99106693822034,4245144.114969817
49.700000000000436,1208.131963385588,11646.883938967829,103.77930207478859,404.08813640271836,4242431.094686909
49.80000000000044,1218.584000544084,11687.403534264022,104.52037158495888,405.1959529619314,4239705.373652464
49.90000000000044,1229.1114243040938,11728.037720118444,105.27423760009965,406.34185854421236,4236967.510424319
50.00000000000044,1239.714802349091,11768.787496414721,106.03378044997292,407.49776296276696,4234217.995013408
50.10000000000044,1250.394626393099,11809.653562392688,106.79824044008075,408.6606597796677,4231460.520656509
50.20000000000044,1261.1513830375209,11850.63658659232,107.56756644421701,409.830241996322,4228695.465080085
50.300000000000445,1271.985561499389,11891.737236349363,108.34178461868082,411.00649757044033,4225922.844211184
50.400000000000446,1282.8976544763987,11932.956181358775,109.120929770098,412.18945009411226,4223142.630687801
50.50000000000045,1293.8881582689182,11974.294094408295,109.9050379251951,413.3791304951866,4220354.788584069
50.60000000000045,1304.9575728291609,12015.751651773957,110.69414560242558,414.5755736566291,4217559.277508673
50.70000000000045,1316.1064018143204,12057.329533548234,111.4882898515962,415.7788177427831,4214756.053359521
50.80000000000045,1327.3351526537986,12099.028423932356,112.2875083947824,416.9889038412151,4211945.068681107
50.90000000000045,1338.6443366313456,12140.849011498987,113.0918397754699,418.2058756663191,4209126.272946473
51.000000000000455,1350.0344689802725,12182.791989429033,113.90132348926856,419.429779300469,4206299.612802176
51.100000000000456,1361.5060689884579,12224.858055726216,114.71600008185207,420.6606629718142,4203465.0322837895
51.20000000000046,1373.0596601091036,12267.04791341308,115.53591120645724,421.8985768686503,4200622.473005828
51.30000000000046,1384.6957700730086,12309.36227071196,116.3610996390497,423.14357298879503,4197771.874329283
51.40000000000046,1396.414930998426,12351.801841214046,117.19160925417358,424.3957050208683,4194913.173509559
51.50000000000046,1408.2176794952527,12394.367344039365,118.02748496826754,425.6550282531849,4192046.305827259
51.60000000000046,1420.104556761221,12437.059503989889,118.86877265968187,426.92159950524825,4189171.2047039093
51.700000000000465,1432.0761086687937,12479.879051697544,119.71551907572825,428.19547707655914,4186287.8018043903
51.800000000000466,1444.13288584249,12522.826723768309,120.5677717369624,429.4767207076435,4183396.027127575
51.90000000000047,1456.2754437272656,12565.903262923182,121.42557884775594,430.7653915487344,4180495.809086405
52.00000000000047,1468.5051679603098,12609.11234598263,122.29724233044134,432.09083059447283,4177587.074578433
52.10000000000047,1480.8226382544105,12652.45474095599,123.17470294100798,433.4239497335926,4174669.748232083
52.20000000000047,1493.228357230196,12695.930937889045,124.05718975785582,434.76196933055036,4171747.2128022136
52.30000000000047,1505.722831205316,12739.541432833055,124.9447397511989,436.1049494401006,4168819.397339698
52.400000000000475,1518.306577740321,12783.286755861818,125.83746535004954,437.45323028763386,4165885.8928778954
52.500000000000476,1530.9801253889682,12827.167471364282,126.73547648647103,438.8071550246466,4162946.2891455716
52.60000000000048,1543.744012875405,12871.184175573098,127.6388748643669,440.16704208815264,4160000.2073890977
52.70000000000048,1556.598788468363,12915.337494033416,128.5477559295795,441.53318460318303,4157047.3003317816
52.80000000000048,1569.5450095960814,12959.628079283757,129.4622112771834,442.9058525034149,4154087.2489368287
52.90000000000048,1582.583242656539,13004.056608760226,130.38233060457588,444.28529476468776,4151119.759186452
53.00000000000048,1595.7140629645205,13048.623782911458,131.30820307981554,445.6717415123186,4148144.5591900367
53.100000000000485,1608.9380547776516,13093.33032351207,132.23991813131047,447.0654060061128,4145161.396618621
53.200000000000486,1622.2558113499442,13138.176972163954,133.17756572292723,448.4664865188401,4142170.036431139
53.30000000000049,1635.6679349714711,13183.164488975293,134.12123621526902,449.87516811339356,4139170.2588574137
53.40000000000049,1649.1750369649262,13228.293651406726,135.07101993455058,451.2916243143319,4136161.8576059616
53.50000000000049,1662.777737622546,13273.56525327309,136.02700657619843,452.7160186636368,4133144.6382682254
53.60000000000049,1676.4766660788346,13318.980103887929,136.9892845628862,454.14850614839463,4130118.4168944024
53.70000000000049,1690.272460124727,13364.539027336845,137.95794045892504,455.58923448915846,4127083.0187194897
53.800000000000495,1704.165765976543,13410.24286186497,138.93305851816046,457.0383452812531,4124038.2770213718
53.900000000000496,1718.157238017972,13456.092459363605,139.91472041428926,458.4959749863449,4120984.0320956702
54.0000000000005,1732.247538535385,13502.08868494134,140.90300517412973,459.96225577734816,4117920.1303345924
54.1000000000005,1746.437337466253,13548.23241656588,141.89798930867954,461.4373162453933,4114846.4233991015
54.2000000000005,1760.7280798199558,13594.527041055437,142.90742353702916,462.94624489557424,4111762.7674754164
54.3000000000005,1775.1204637697547,13640.973474032993,143.92383949798796,464.46432977556873,4108669.021863361
