t[s],x[m],y[m],vx[m/s],vy[m/s],mass[kg],tau[-]
442.60000000003214,26222.618765558458,51699.30102672771,-18.68416632892967,-1569.5369682215937,974276.4834806775,0.1275134305445333
442.70000000003216,26220.770630674848,51542.567870176455,-18.4813488361138,-1567.331565512567,973402.3828291569,0.5466711451722376
442.8000000000322,26218.939873148047,51386.1613701979,-18.3075752680257,-1564.0649997855605,972243.6483541521,0.7246839380563315
442.9000000000322,26217.1245440281,51230.126828303924,-18.153291199459982,-1560.345418939754,970965.7730989538,0.7991957538658697
443.00000000003223,26215.322936553683,51074.483405258405,-18.01607474418359,-1556.4342304552115,969639.948240462,0.8291839074010009
443.10000000003225,26213.53328419231,50919.23902051585,-17.896523613744627,-1552.4438474254953,968296.8288221615,0.8400000952157883
443.2000000000323,26211.753674813834,50764.39673900388,-17.79609378473952,-1548.4228151197262,966949.6370221403,0.8425470028001818
443.3000000000323,26209.982005489117,50609.95747419196,-17.716693247169346,-1544.3926481192793,965604.0662141404,0.8415332184458699
443.4000000000323,26208.216281227084,50455.92133121609,-17.657242620320897,-1540.3614297586694,964262.4720455275,0.8390461890587193
443.50000000003234,26206.45560475236,50302.28677185184,-17.60676474726177,-1536.3455936425014,962925.9616312044,0.8358667591217745
443.60000000003237,26204.697053091793,50149.052192010786,-17.585516605652817,-1532.345798410532,961593.1067594942,0.8335805468154333
443.7000000000324,26202.93806626288,49996.216583113295,-17.589868289155188,-1528.3560889748753,960262.3393104963,0.832275052119134
443.8000000000324,26201.176058597786,49843.77912782189,-17.620076650942963,-1524.3745529140808,958933.0237789963,0.83136700863487
443.90000000003243,26199.40847358042,49691.73914400043,-17.675850173656524,-1520.3998382146044,957604.8226556644,0.8306700468051024
444.00000000003246,26197.632845046544,49540.09603936196,-17.756285338759618,-1516.4310463847064,956277.6106370239,0.830051451002196
444.1000000000325,26195.846859214325,49388.84928535649,-17.85985832217599,-1512.4675400546882,954951.4054062025,0.8294217959973237
444.2000000000325,26194.048416659723,49237.99840243354,-17.984425546032693,-1508.508829229501,953626.3282763513,0.8287162705545007
444.3000000000325,26192.23569295339,49087.54295077561,-18.127237063361203,-1504.5545165793096,952302.5825264802,0.8278836124193745
444.40000000003255,26190.407196402717,48937.48252324571,-18.284965506708865,-1500.6042752990588,950980.4402725783,0.8268807702681944
444.50000000003257,26188.561821221967,48787.81673892308,-18.4537518075174,-1496.6578432262577,949660.23280553,0.8256707355392355
444.6000000000326,26186.698894429013,48638.545236476704,-18.629267929531423,-1492.715024463757,948342.3418444337,0.8242219699314971
444.7000000000326,26184.818214815234,48489.66766707789,-18.80679613780882,-1488.7756939881417,947027.1905002097,0.8225085865925491
444.80000000003264,26182.920082444165,48341.183686784534,-18.981323710688503,-1484.8398029335674,945715.2334350966,0.820510853017496
444.90000000003266,26181.00531729722,48193.092948442805,-19.14765146946216,-1480.9073834172702,944406.9460534293,0.8182157968952272
445.0000000000327,26179.075265889413,48045.39509319151,-19.300514078056498,-1476.9785525129405,943102.8127290122,0.8156178086312971
445.1000000000327,26177.13179490631,47898.089741622134,-19.43470983104304,-1473.0535156937572,941803.3141329454,0.8127192039336409
445.20000000003273,26175.17727112835,47751.17648449321,-19.54523777959553,-1469.132571289232,940508.9136770647,0.8095307769155464
445.30000000003275,26173.214527031636,47604.654872428146,-19.627440967119764,-1465.2161206506391,939220.0428529953,0.8060724907909269
445.4000000000328,26171.246811322315,47458.52440247315,-19.677157093226793,-1461.3046995499117,937937.0845229352,0.8023747588818663
445.5000000000328,26169.277723755997,47312.78449272138,-19.690875663166384,-1457.39909751771,936660.3508044146,0.7984818255993377
445.6000000000328,26167.311192885463,47167.43439690448,-19.66530870533324,-1453.500958169047,935390.0418054877,0.7944637427714901
445.70000000003284,26165.350887452056,47022.47343276275,-19.60305433408848,-1449.6096414172878,934126.1114544158,0.7904744736621466
445.80000000003287,26163.39951179791,46877.8989587205,-19.513756541472947,-1445.7447404225477,932868.6098286917,0.7864538855963011
445.9000000000329,26161.46186754777,46733.709028880796,-19.37644250141849,-1441.8992983970054,931614.5156166108,0.7843228555883277
446.0000000000329,26159.54235744044,46589.90232812149,-19.195101073282594,-1438.0670075930175,930361.9285683839,0.783380260489442
446.10000000003294,26157.64529276642,46446.477879344915,-18.97064674021641,-1434.2444877657247,929109.9181033155,0.7830196597108231
446.20000000003296,26155.774764028472,46303.43492635063,-18.705287379499463,-1430.429529942817,927858.0756096172,0.7829146087638369
446.300000000033,26153.934512399348,46160.77285962517,-18.40251629126076,-1426.6206672545761,926606.3301258136,0.78285393782144
446.400000000033,26152.1278062479,46018.49117716432,-18.067061514484337,-1422.8168246085088,925354.8306417526,0.7827000871627436
446.500000000033,26150.357325268673,45876.58946279791,-17.70480979228472,-1419.017143664111,924103.8830734879,0.7823549135950338
446.60000000003305,26148.62505567482,45735.067371731755,-17.32269593852169,-1415.2209106615271,922853.9148450822,0.7817424248143955
446.70000000003307,26146.93220025639,45593.92461823137,-16.9285541843197,-1411.4275350038047,921605.4512120968,0.7808014360391783
446.8000000000331,26145.279107057435,45453.160963145776,-16.530931989545838,-1407.6365508559857,920359.0955039109,0.7794831191359215
446.9000000000331,26143.6652201211,45312.776200340864,-16.13886936333263,-1403.847628049133,919115.509718894,0.7777507819408893
447.00000000003314,26142.08905526162,45172.770141763984,-15.761648594802017,-1400.0605857687774,917875.3939865726,0.7755805768534724
447.10000000003316,26140.548203201306,45033.14260112269,-15.408520603134088,-1396.2754064129565,916639.4643801007,0.7729625325722208
447.2000000000332,26139.039361730665,44893.893376117354,-15.088414706394024,-1392.492250053302,915408.4289356923,0.7699016754783651
447.3000000000332,26137.558397941615,44755.022228629205,-14.80963789049329,-1388.711474881529,914182.9616505055,0.7664192939323445
447.40000000003323,26136.10044131331,44616.52886022957,-14.57956628305194,-1384.9336839963476,912963.6733938628,0.7625548687036137
447.50000000003325,26134.66000819355,44478.41287143171,-14.404331197590778,-1381.1598879785474,911751.0755191372,0.7583706380455947
447.6000000000333,26133.23108902691,44340.6736387177,-14.289191666385898,-1377.3923271401006,910545.5180586051,0.7539674937589779
447.7000000000333,26131.807830808997,44203.31064089299,-14.232582179148464,-1373.629978247084,909346.9985306676,0.749565901488792
447.8000000000333,26130.385881228307,44066.32075507331,-14.21949580690162,-1369.89885819679,908155.6795592859,0.7450626025936795
447.90000000003334,26128.957937809602,43929.70173999366,-14.279434187054193,-1366.190150796562,906967.69628731,0.7429764233750714
448.00000000003337,26127.517548092015,43793.45227624559,-14.403897175869652,-1362.4946374806964,905780.5003965277,0.7424839874318597
448.1000000000334,26126.058600382974,43657.57148962495,-14.58947709039839,-1358.8078662063715,904592.9862383591,0.7426830349857362
448.2000000000334,26124.57554807806,43522.05879878806,-14.83052304913896,-1355.1269083689058,903404.7425042136,0.7431393189778722
448.30000000003344,26123.06362322769,43386.91381069605,-15.119248503706835,-1351.4498809200586,902215.8194867409,0.7435641494522168
448.40000000003346,26121.51903059041,43252.13626061437,-15.445926372769787,-1347.7755008168883,901026.570629735,0.7437679327012289
448.5000000000335,26119.93911541649,43117.72597394902,-15.799151739180312,-1344.1028666534799,899837.563514181,0.7436167452194872
448.6000000000335,26118.32249761302,42983.68283673645,-16.166178034715674,-1340.431372125663,898649.5249849823,0.7430109817856947
448.7000000000335,26116.66916539335,42850.00676867817,-16.533322196711843,-1336.7606805827884,897463.2997606228,0.7418769231035212
448.80000000003355,26114.980522594906,42716.69769629548,-16.886427984415583,-1333.0907238268871,896279.8127281572,0.7401644309601014
448.9000000000336,26113.259385317768,42583.75552546008,-17.211372771367987,-1329.4217083540045,895100.030759705,0.7378472474828135
449.0000000000336,26111.509925196908,42451.18011305249,-17.494601208600212,-1325.7541240758715,893924.9224543642,0.7349242926024746
449.1000000000336,26109.737558192748,42318.97123683633,-17.723670041599632,-1322.0887621615543,892755.4149891072,0.7314214721238711
449.20000000003364,26107.94877875568,42187.12855913536,-17.88779437069975,-1318.4267770097442,891592.3462883345,0.7273946054832726
449.30000000003366,26106.15094115323,42055.65156264085,-17.97837602446312,-1314.7699649451167,890436.4053653508,0.7229368231446973
449.4000000000337,26104.352320711827,41924.53935810762,-17.986204414058758,-1311.1220453323338,889288.0269452484,0.7182071594574713
449.5000000000337,26102.560125436525,41793.79113416019,-17.921952753016424,-1307.4822394743542,888147.0911738187,0.7135524537712125
449.60000000003373,26100.781087860632,41663.40267910644,-17.790375758905608,-1303.8845505375027,887013.5786015096,0.7089099120260782
449.70000000003375,26099.024035055358,41533.37184361845,-17.57052805273587,-1300.3083548798775,885882.1612005174,0.7075995712762276
449.8000000000338,26097.296969249048,41403.697137560106,-17.270658063101106,-1296.7470605834228,884750.7524326829,0.7075941720145309
449.9000000000338,26095.607158990082,41274.377621513486,-16.898102589648474,-1293.195160466184,883618.2650078632,0.7082687747028296
450.0000000000338,26093.96080698202,41145.4127268464,-16.463520080603924,-1289.6489466708535,882484.4449606384,0.7091022098627183
450.10000000003384,26092.362756168575,41016.80213665971,-15.98050813445066,-1286.1059018669039,881349.5860466295,0.7097519273679141
450.20000000003387,26090.816246857332,40888.54571440313,-15.465093112438154,-1282.5642225657546,880214.3404696593,0.7099937501870909
450.3000000000339,26089.322735675567,40760.64345348464,-14.935111817644502,-1279.0226091849036,879079.6059251386,0.7096741454666801
450.4000000000339,26087.881786498718,40633.09543352477,-14.409491768491735,-1275.4801995986484,877946.4476126445,0.7086883544532183
450.50000000003394,26086.49104130372,40505.90177709623,-13.907451949971865,-1271.936564285453,876816.0327070942,0.7069726007663187
450.60000000003396,26085.14627586355,40379.06260461487,-13.447654401706307,-1268.39172481361,875689.5672433083,0.7045025810398494
450.700000000034,26083.841541929352,40252.57798579568,-13.047339341985706,-1264.8461881918715,874568.2311467637,0.7012946243144116
450.800000000034,26082.569394739825,40126.447882621644,-12.721471895263388,-1261.301031740366,873453.1082538731,0.6974088256357062
450.900000000034,26081.321199880425,40000.672058973076,-12.481948593984074,-1257.7582364856905,872345.1028443935,0.6929574815024041
451.00000000003405,26080.08715034171,39875.24984642839,-12.340495387134219,-1254.2221254468343,871244.8034938723,0.6881380364325247
451.1000000000341,26078.85832483887,39750.1807925527,-12.288255028395868,-1250.690538756889,870152.1162554282,0.6833773466663089
451.2000000000341,26077.627732229736,39625.460915765805,-12.305926091368837,-1247.1987678689825,869067.3018772212,0.6784535824359798
451.3000000000341,26076.38398846601,39501.08758079414,-12.437437637276846,-1243.7333497166176,867985.1532223818,0.6767864128217002
451.40000000003414,26075.117836032558,39377.0594781086,-12.661524334524094,-1240.2810268554144,866902.4779916245,0.6771157385801876
451.50000000003416,26073.82113854385,39253.37587504383,-12.966974887073693,-1236.8360306476789,865818.1686472815,0.6781377292899098
451.6000000000342,26072.48730146025,39130.03646060732,-13.338370836036807,-1233.3941443650972,864732.0236391149,0.6792857715009216
451.7000000000342,26071.11162976105,39007.0411925905,-13.756716991994232,-1229.9526801682102,863644.5141948189,0.6801391032769412
451.80000000003423,26069.691595582353,38884.39019251788,-14.200341786957482,-1226.5100007261904,862556.555224515,0.6804202412637933
451.90000000003425,26068.22700078043,38762.083666015715,-14.645948019242482,-1223.0652650216261,861469.3507548448,0.6799483691462286
452.0000000000343,26066.720022762875,38640.12183338909,-15.06978017553536,-1219.6183262662614,860384.2783489753,0.6786149554741058
452.1000000000343,26065.175136998252,38518.50486335522,-15.44885764621614,-1216.1697003386487,859302.787800719,0.6763748264914773
452.2000000000343,26063.598915234383,38397.23280538531,-15.762217638690084,-1212.7205796991004,858226.3019288534,0.6732448526504312
452.30000000003434,26061.999703844525,38276.30550942219,-15.992113898579499,-1209.272959631215,857156.1112838614,0.6693077558433236
452.40000000003437,26060.3872138572,38155.722476380965,-16.12489987325412,-1205.8303304122865,856093.2444760612,0.6647273560258694
452.5000000000344,26058.773702127226,38035.48305037248,-16.135117299746682,-1202.3942600848704,855038.2260740579,0.6598188858430387
452.6000000000344,26057.166605891067,37915.58566225613,-16.07096236159407,-1198.9738811634525,853991.397278497,0.6546970254204358
452.70000000003444,26055.57464223466,37796.0257701484,-15.919636564072947,-1195.5989210773334,852951.5790350474,0.6503125571738105
452.80000000003446,26054.009612323873,37676.801095706775,-15.650299107891557,-1192.246744416231,851912.9821151778,0.6495487293938614
452.9000000000345,26052.480868830247,37557.910383872986,-15.287434936256652,-1188.9071183378524,850873.3874202879,0.6501727477057204
453.0000000000345,26050.996143822133,37439.35292253358,-14.847250081157112,-1185.574613394091,849832.1044321659,0.6512286228993119
453.1000000000345,26049.561092534987,37321.128447075374,-14.350512871456127,-1182.2447545820353,848789.2431187875,0.6522157230390799
453.20000000003455,26048.1789428393,37203.23699723404,-13.821496956889703,-1178.9144984133402,847745.5595039807,0.652729998440698
453.3000000000346,26046.850286847137,37085.67880235556,-13.28655992161176,-1175.5819487848369,846702.2313861612,0.6525076671281022
453.4000000000346,26045.573028733932,36968.45418336086,-12.772581132063184,-1172.2461899469838,845660.6826799208,0.6513948056240696
453.5000000000346,26044.34249515241,36851.56345906409,-12.305335815223831,-1168.9072429676737,844622.4373142484,0.6493288639410455
453.60000000003464,26043.151706041976,36735.00684623736,-11.907891104360411,-1165.5661282672916,843588.9821313883,0.6463330364937132
453.70000000003466,26041.991788205753,36618.78432557317,-11.599178362225452,-1162.2252066419157,842561.6207687899,0.6425219013627683
453.8000000000347,26040.85217772977,36502.89537107083,-11.396104759826379,-1158.8895450233758,841541.2737008726,0.6381350924761507
453.9000000000347,26039.721671490013,36387.34037393986,-11.30506239755641,-1155.5499713097124,840528.0586838338,0.6336746377053962
454.00000000003473,26038.59222647431,36272.116559051836,-11.294450157026207,-1152.2381488801718,839523.5211925216,0.6282476277633263
454.10000000003475,26037.454012725215,36157.21949347048,-11.382137490962041,-1148.9706558135306,838524.3277789627,0.6249053889716624
454.2000000000348,26036.29576648653,36042.648465849954,-11.582462386831235,-1145.7102762052873,837524.5239882704,0.625287124834537
454.3000000000348,26035.108962938375,35928.40283506529,-11.868035481577333,-1142.4563078466572,836523.911480018,0.6257929047512725
454.4000000000348,26033.88719786098,35814.482238080614,-12.217650773958981,-1139.205969846716,835522.4347853478,0.6263333754372549
454.50000000003485,26032.62658833314,35700.88659967987,-12.60609527837453,-1135.9563840074582,834520.4961956055,0.6266222491585007
454.60000000003487,26031.326024310227,35587.61601252582,-13.005640229130293,-1132.7058715405249,833518.981273864,0.6263572830235157
454.7000000000349,26029.98723095936,35474.670618160715,-13.387933508679435,-1129.4539436510256,832519.0824640745,0.6253465507126782
454.8000000000349,26028.614635033056,35362.05049605554,-13.72595926302586,-1126.201221051739,831522.1218640096,0.6235089654503502
454.90000000003494,26027.215044818233,35249.75554408479,-13.995902148226474,-1122.9495197075744,830529.382453283,0.620868992118453
455.00000000003496,26025.797237199182,35137.78529133688,-14.178076190519256,-1119.7025274790617,829541.9204356957,0.6175684585402211
455.100000000035,26024.373503415238,35026.13928744561,-14.237337839433863,-1116.4600389126765,828560.2671995185,0.6139355895108249
455.200000000035,26022.951819619986,34914.81739354701,-14.216837952522864,-1113.2189389859755,827585.0648217241,0.6099011592271554
455.300000000035,26021.539880817294,34803.81668981574,-14.119388026908759,-1110.007037312698,826617.3614043274,0.6052112356341217
455.40000000003505,26020.145701256264,34693.13317995626,-13.941795610287421,-1106.8350985948282,825653.8685066915,0.6025779351608019
455.5000000000351,26018.78069525273,34582.765906023415,-13.650060035317942,-1103.6727393284777,824689.6143326905,0.603054044887525
455.6000000000351,26017.45216509556,34472.714537537824,-13.285301571691713,-1100.5136848558823,823724.40799761,0.603649535792074
455.7000000000351,26016.164969494283,34362.97872231746,-12.871956012795412,-1097.358152203638,822758.9458056203,0.6038095512198466
455.80000000003514,26014.92129423683,34253.55833321363,-12.436752574546752,-1094.203891038283,821793.8368805652,0.6035886146041824
455.90000000003516,26013.720531020695,34144.45340025025,-12.007632161331943,-1091.0493296338589,820829.9872183772,0.6028010592208727
456.0000000000352,26012.55936412574,34035.66398161961,-11.611668949550682,-1087.8941863063387,819868.4983747839,0.6013245800505749
456.1000000000352,26011.432039215495,33927.19000395234,-11.273249102458351,-1084.7397766727354,818910.4747216257,0.5991574158686144
456.20000000003523,26010.330393604447,33819.031078405016,-11.016456110466615,-1081.5892554732086,817956.7842759328,0.5964473852980703
456.30000000003525,26009.24398524107,33711.18797541216,-10.864083633758312,-1078.4310299285255,817007.7751777283,0.5935196245328422
456.4000000000353,26008.16549157181,33603.65987673356,-10.78493669261038,-1075.2809867860387,816065.5755314442,0.5892609263235971
456.5000000000353,26007.087856864913,33496.44426458878,-10.776347068958561,-1072.1561214477927,815129.8977762529,0.5851820714843718
456.6000000000353,26006.00385354034,33389.53893715335,-10.840033245748065,-1069.0532743542904,814197.8103029515,0.5829366738762106
456.70000000003535,26004.905224490092,33282.94155086253,-10.986290502482564,-1065.9738629082424,813266.8619240423,0.5822242730390523
456.80000000003537,26003.784346948352,33176.652507122715,-11.208775417398087,-1062.890437398152,812334.3538553399,0.5831997183770263
456.9000000000354,26002.637123457658,33070.67183541452,-11.472234906930202,-1059.806717081968,811401.8615297108,0.5831898725040968
457.0000000000354,26001.462136440834,32964.999327891375,-11.749870168244,-1056.725075231457,810470.436004701,0.5825226849037358
457.10000000003544,26000.260606698685,32859.634731087106,-12.015297421503785,-1053.6459680427038,809540.8021637603,0.5814021480637415
457.20000000003546,25999.036319157472,32754.577670777413,-12.242875412114627,-1050.5706030969366,808613.6602470328,0.5798436741500894
457.3000000000355,25997.79621582902,32649.827757109462,-12.401033284495572,-1047.4991366795095,807689.5717790955,0.5779340172427864
457.4000000000355,25996.54803040844,32545.385736409615,-12.481854205797012,-1044.4202069984601,806769.13735015,0.5756487453158337
457.5000000000355,25995.297984251607,32441.250939627076,-12.500461568328602,-1041.3479678253966,805854.7498284489,0.5718669500475564
457.60000000003555,25994.052520788264,32337.421505448256,-12.454634633416852,-1038.294341788214,804946.5779976635,0.5679795958108369
