t[s],x[m],y[m],vx[m/s],vy[m/s],mass[kg],tau[-]
449.7000000000337,26080.493616050724,40290.251725052716,-18.247633362356147,-1643.036709126345,974376.5531498061,0.0649288751797094
449.8000000000337,26078.685239798484,40126.04175937834,-18.083762522416677,-1642.0996567437724,973848.1480552686,0.3304697435509495
449.90000000003374,26076.881580671714,39962.041544533575,-18.03659126770197,-1640.0021484476727,973014.3134442783,0.5214883673651841
450.00000000003376,26075.073989632107,39798.33086908863,-18.075910396079625,-1637.1067544494358,971961.6107751139,0.6583706037478896
450.1000000000338,26073.2461639114,39634.965550549954,-18.278257207068187,-1633.6531853867978,970749.5691383157,0.7580227613746081
450.2000000000338,26071.385492080055,39471.98709064787,-18.606718313443846,-1629.7845990208943,969419.7736022966,0.8316672081824302
450.30000000003383,26069.482449060924,39309.42616294175,-19.030430191291458,-1625.6092770611647,968003.1802294957,0.885951429054944
450.40000000003386,26067.531478720695,39147.305913253804,-19.509703402293614,-1621.2024968794726,966522.7070796874,0.9259024699211283
450.5000000000339,26065.531645275052,38985.644185796256,-19.99833445641669,-1616.6172745754989,964995.706553258,0.9550011489062789
450.6000000000339,26063.486885523027,38824.45499461,-20.4475975202463,-1611.891911862563,963435.635601345,0.9756837182866077
450.7000000000339,26061.40580532095,38663.74943921549,-20.810802020771114,-1607.0555539451016,961853.1598170119,0.9896959208575208
450.80000000003395,26059.301058779743,38503.53618060299,-21.047465412057157,-1602.1325861249722,960256.8375184499,0.9983556670515025
450.90000000003397,26057.189634912265,38343.82030707684,-21.114238674768448,-1597.1587352614838,958657.8860112415,1.0
451.000000000034,26055.08425442402,38184.6058014775,-21.053804882466288,-1592.1450559934915,957058.9345040331,1.0
451.100000000034,26052.995094097012,38025.89217907783,-20.891603270083337,-1587.1362239966722,955459.9829968247,1.0
451.20000000003404,26050.939952702996,37867.6759320451,-20.551413940164082,-1582.1624703272873,953861.0314896163,1.0
451.30000000003406,26048.933046758357,37709.954967136146,-20.069059446402154,-1577.2096490895758,952262.0799824079,1.0
451.4000000000341,26046.984297596493,37552.72795830035,-19.4874916186263,-1572.2700883579682,950663.1284751995,1.0
451.5000000000341,26045.098399623166,37395.99477463406,-18.858979733272925,-1567.3318366628353,949064.176967991,1.0
451.60000000003413,26043.274217966355,37239.75667078527,-18.241816568107275,-1562.3810384879553,947465.2254607826,1.0
451.70000000003415,26041.504801466577,37084.0162440647,-17.69416499776931,-1557.4042672057205,945866.2739535742,1.0
451.8000000000342,26039.7779993203,36928.777134437005,-17.268021462757233,-1552.3910962769025,944267.3224463658,1.0
451.9000000000342,26038.076239873146,36774.04395333059,-17.01759447153302,-1547.3318110641103,942668.3709391574,1.0
452.0000000000342,26036.385538411836,36619.8215579061,-16.907014613100586,-1542.2239542448922,941069.419431949,1.0
452.10000000003424,26034.694697287596,36466.1105734352,-16.90841124241436,-1537.1098447089985,939470.4679247406,1.0
452.20000000003427,26032.98774941357,36312.90445218837,-17.069478740264625,-1532.0612124683048,937880.6188972138,0.99430721967453
452.3000000000343,26031.248560059117,36160.19899990008,-17.391893544502803,-1527.0545228828637,936296.9424650511,0.9904468178198311
452.4000000000343,26029.466853172755,36007.99201397368,-17.81706886362982,-1522.0698592639983,934716.4762623182,0.9884391087583129
452.50000000003433,26027.63850624941,35856.28296975991,-18.283469233470704,-1517.0904421376752,933137.800480943,0.9873193616305468
452.60000000003436,26025.76604071786,35705.072685152605,-18.724655315492164,-1512.102846072999,931560.8119852606,0.9862641165620435
452.7000000000344,26023.858384590654,35554.36276851873,-19.07656127205841,-1507.099166338756,929986.4857310024,0.9845991245893224
452.8000000000344,26021.93051419529,35404.155032106566,-19.278703953632053,-1502.077364121669,928416.4660537221,0.9819057489876168
452.9000000000344,26019.999756399226,35254.45231905951,-19.30757796064898,-1497.027130470572,926852.6274476742,0.9780400462414739
453.00000000003445,26018.07685576548,35105.25340571772,-19.229006337458493,-1491.989133417915,925297.663452177,0.972489777511749
453.10000000003447,26016.17385150649,34956.554046538186,-19.03004258992174,-1486.993591795295,923751.1560174463,0.9672009612290736
453.2000000000345,26014.307857089694,34808.34826623169,-18.659944167958578,-1482.0578030649692,922210.4265653446,0.9635873540603832
453.3000000000345,26012.49205609092,34660.633766733394,-18.15800998774189,-1477.1449949829246,920671.5358787363,0.9624373720344928
453.40000000003454,26010.732570342174,34513.41001527936,-17.59485748743913,-1472.237514540347,919133.2662663212,0.9620489461252217
453.50000000003456,26009.02838370591,34366.6778847866,-17.04186636265136,-1467.3213049276144,917595.6612717747,0.9616332875729682
453.6000000000346,26007.371421403852,34220.43917859421,-16.569623020594378,-1462.38706192387,916059.7641842165,0.9605651457433387
453.7000000000346,26005.74597958697,34074.69668097081,-16.25441816881169,-1457.4249762340137,914527.270934588,0.9584363520217339
453.80000000003463,26004.138083247377,33929.45311364768,-16.078963395910332,-1452.435673231286,913000.5711558735,0.9548130583272446
453.90000000003465,26002.53766464677,33784.70767946143,-16.004186006062614,-1447.454341862462,911482.0432872613,0.94970226536976
454.0000000000347,26000.932599856686,33640.45691297117,-16.050647900855363,-1442.507664902641,909971.4628143886,0.9447318859032092
454.1000000000347,25999.31056631755,33496.696304904806,-16.220335391355704,-1437.6060806635867,908466.5826800093,0.9411668381404625
454.2000000000347,25997.657123860572,33353.42265689833,-16.534424569746033,-1432.7364800648108,906964.3645053202,0.9395020223670506
454.30000000003474,25995.966705292976,33210.63574291591,-16.904185675953777,-1427.8691398242127,905462.732201451,0.9391356129936642
454.40000000003477,25994.241646735656,33068.3364814413,-17.25058557320653,-1422.9926147461092,903961.9213476011,0.9386218700716491
454.5000000000348,25992.492446274664,32926.5268793846,-17.492004609914893,-1418.0960205670242,902463.1061926706,0.9373737403376907
454.6000000000348,25990.732934426556,32785.20974226137,-17.59511848108298,-1413.1713712322626,900968.369196827,0.9348232195316973
454.70000000003483,25988.972937548857,32644.385415983197,-17.599968777003955,-1408.243262781768,899480.4442488608,0.9305628977854095
454.80000000003486,25987.22271443237,32504.051672419642,-17.502231164860984,-1403.337435635552,898000.1918414201,0.9257644154731796
454.9000000000349,25985.492759288954,32364.205608725028,-17.29955143416263,-1398.4606369461421,896526.5454728921,0.9216329337597433
455.0000000000349,25983.791457766773,32224.84365337646,-17.013015221826095,-1393.6195534856738,895057.9335657106,0.9184843321143642
455.1000000000349,25982.129039602358,32085.962832964808,-16.624181644146137,-1388.8082041165412,893592.2588427679,0.9166473882009912
455.20000000003495,25980.508954806286,31947.56254985642,-16.200847960713,-1384.0028310838775,892127.8869410387,0.9158325909995259
455.30000000003497,25978.925847408635,31809.644436805527,-15.831073976508474,-1379.1811305089122,890664.9097939349,0.9149602977378518
455.400000000035,25977.370923818817,31672.210670212484,-15.549235898187167,-1374.3376659304242,889205.029359304,0.913023583297856
455.500000000035,25975.836274224683,31535.26225029484,-15.346495941334918,-1369.484199176458,887750.3429167946,0.9097752095366235
455.60000000003504,25974.3120503499,31398.798848804614,-15.242238747824464,-1364.6340149022542,886302.0848063123,0.9057548674573339
455.70000000003506,25972.789105256394,31262.818944993716,-15.229450935068867,-1359.7990381089712,884860.4834673767,0.9015916570556336
455.8000000000351,25971.25833210656,31127.31951728651,-15.307731498323184,-1354.9942770720636,883424.881500047,0.8978395910430454
455.9000000000351,25969.71303947514,30992.29817061293,-15.452926314228236,-1350.213466735805,881993.4929583959,0.8952044731802169
456.00000000003513,25968.149711803308,30857.753518608937,-15.633276718308949,-1345.4465200399054,880565.0225892315,0.8933794194036121
456.10000000003515,25966.56803937753,30723.685366282247,-15.816724257769721,-1340.6815232668857,879138.9623655756,0.8918720906962952
456.2000000000352,25964.970910832155,30590.09433966697,-15.971285453737284,-1335.9102661527465,877715.7333760837,0.8901014090019219
456.3000000000352,25963.364325190203,30456.981145113008,-16.065856419505128,-1331.1319455396474,876296.4112425759,0.8876580228413391
456.4000000000352,25961.75633403941,30324.34578585703,-16.079911507920574,-1326.3535925597753,874882.1703411791,0.8844801702997552
456.50000000003524,25960.154214186936,30192.18718210877,-16.02119852476334,-1321.5860374826077,873473.6842065406,0.8808810825649062
456.60000000003527,25958.567757582674,30060.503204934343,-15.86456604260501,-1316.8397717442663,872070.8108108162,0.877370820440712
456.7000000000353,25957.003932529824,29929.291603460217,-15.638250528500354,-1312.1160147412752,870672.6440241032,0.8744272608705315
456.8000000000353,25955.466818197026,29798.55066816722,-15.371143327973748,-1307.4093529299623,869278.1602532966,0.8721238664962391
456.90000000003533,25953.957329979967,29668.279674131325,-15.094882170580005,-1302.7099403589405,867886.7176457454,0.8702218930832551
457.00000000003536,25952.473804188798,29538.478703952984,-14.835257911678458,-1298.0097017834157,866498.3902740462,0.8682735939397501
457.1000000000354,25951.011154679716,29409.148106023,-14.626495090828897,-1293.3059792998522,865113.8437371603,0.8659090226589724
457.2000000000354,25949.562444592153,29280.287662824612,-14.487100875616903,-1288.6044319838813,863733.9227943791,0.8630161306083146
457.3000000000354,25948.119007718797,29151.896598143332,-14.434368733550391,-1283.910646812819,862359.0390471418,0.8598658189688626
457.40000000003545,25946.67585556421,29023.973607133994,-14.431521545838088,-1279.2299100933903,860989.1755174458,0.8567261255393838
457.50000000003547,25945.22706621615,28896.516798263416,-14.487893480608449,-1274.5680887057972,859623.9525426256,0.8538238768752326
457.6000000000355,25943.769397385284,28769.5250261124,-14.576688308676456,-1269.917721510177,858262.5428774303,0.8514389955278407
457.7000000000355,25942.30224596659,28642.997480950027,-14.671514186912688,-1265.2754516237023,856904.7056084488,0.8492047837974306
457.80000000003554,25940.82758723429,28516.933930304833,-14.746587323015811,-1260.6355064519598,855550.4788091792,0.8469467605268349
457.90000000003556,25939.349757636497,28391.333565955636,-14.778295977926886,-1256.0036434919787,854200.3629299841,0.8443757506769142
458.0000000000356,25937.87476576866,28266.19522831744,-14.749918678366232,-1251.3833763819603,852854.4515812983,0.8417461959404318
458.1000000000356,25936.40628575707,28141.5185848931,-14.68480011591426,-1246.7664342434118,851512.5932904556,0.839211373699109
458.20000000003563,25934.95069182822,28017.302233695926,-14.555939288502364,-1242.1635119717278,850175.2434337432,0.8363917546488164
458.30000000003565,25933.512031987913,27893.54465451458,-14.386598403071982,-1237.5757918134677,848842.0801590747,0.8337734250590981
458.4000000000357,25932.091972114642,27770.24496900771,-14.20059873270765,-1232.9968550686965,847512.673940172,0.8314237254285209
458.5000000000357,25930.689953216082,27647.40235865216,-14.020188985603829,-1228.4261035554605,846187.0601868791,0.8290518801331367
458.6000000000357,25929.303155479654,27525.01660426919,-13.867977364282632,-1223.857543829736,844865.3039624111,0.8266393436631723
458.70000000003574,25927.927130988657,27403.085906313627,-13.760244909987655,-1219.3069795556066,843547.9074056848,0.8239127645755534
458.80000000003577,25926.55653454926,27281.61034739267,-13.705964393950305,-1214.7555892095718,842234.1731805474,0.8216223063768991
458.9000000000358,25925.190234598613,27160.588514314728,-13.66299950649407,-1210.2183307794164,840924.817736014,0.8188837739172137
459.0000000000358,25923.824290728015,27040.018656237433,-13.659438705990915,-1205.6985807729345,839619.4717017408,0.8163762493037223
459.10000000003583,25922.45666309097,26919.901249487364,-13.676276370465587,-1201.1740675006924,838317.4894609007,0.8142724998040966
459.20000000003586,25921.087187368845,26800.235133646092,-13.694757221234175,-1196.6611584127263,837019.9225047623,0.8115111373225881
459.3000000000359,25919.71740751983,26681.018248057655,-13.69779849013211,-1192.1688558843887,835726.6112177053,0.8088496000200985
459.4000000000359,25918.350242671364,26562.250038208258,-13.67164848466849,-1187.6820984939584,834436.7346220803,0.8067015102146411
459.5000000000359,25916.98924601497,26443.930142378984,-13.609966563916698,-1183.198958292746,833150.6201664067,0.8043486308843822
459.60000000003595,25915.633823034565,26326.05752979408,-13.554229804082503,-1178.7261258490316,831868.7508720506,0.8016936652407041
459.70000000003597,25914.28740373965,26208.630668401267,-13.464192949132308,-1174.26861392814,830591.0742960057,0.7990714979691416
459.800000000036,25912.952138723165,26091.648033617115,-13.352650164865349,-1169.82634784152,829317.1977416511,0.7966949270266813
459.900000000036,25911.628664088887,25975.108753486704,-13.234746342772327,-1165.3928013041195,828046.7245705536,0.7945664176617621
460.00000000003604,25910.316176939035,25859.012227768606,-13.124871498510107,-1160.965257180965,826779.7388655155,0.7923853220853635
460.10000000003606,25909.012777050975,25743.357958163393,-13.033998880586172,-1156.5426960521247,825516.5207890498,0.7900290101174776
460.2000000000361,25907.716036011978,25628.14516074841,-12.96741038995721,-1152.1279741498502,824257.4223694971,0.787452536162837
460.3000000000361,25906.423697228474,25513.372921466937,-12.923387835026462,-1147.7223928147114,823002.5803003816,0.7847905727337328
460.40000000003613,25905.138326632947,25399.03995014952,-12.85370595527044,-1143.3297131741547,821752.0382274342,0.7821013128352098
460.50000000003615,25903.85772262243,25285.14492748686,-12.80604010518525,-1138.9502266265952,820505.600054003,0.7795346937114599
460.6000000000362,25902.58044174169,25171.686667880098,-12.77280880739655,-1134.5825960676177,819263.0094456841,0.7771283886452678
460.7000000000362,25901.306021898716,25058.664168048046,-12.744198429761317,-1130.2249983205352,818024.1192626023,0.7748141063044378
460.8000000000362,25900.03492839141,24946.076551645267,-12.71093507304456,-1125.8761640278135,816788.930430652,0.7724992449000975
460.90000000003624,25898.768279647164,24833.922941454548,-12.666487442485213,-1121.5361019071822,815557.5502284255,0.7701172904088469
461.00000000003627,25897.507435897118,24722.202404332216,-12.608437500461726,-1117.205371223318,814330.0939131591,0.7676632529084076
461.1000000000363,25896.2535687912,24610.913943819265,-12.53867105917535,-1112.8846051294995,813106.6396536183,0.765160327893098
461.2000000000363,25895.0073446558,24500.056498889306,-12.462241353968594,-1108.5744492995987,811887.2190746453,0.7626376243904709
461.30000000003633,25893.768812262428,24389.628953976484,-12.385323933732465,-1104.2754491282342,810671.8133947782,0.7601266669989099
461.40000000003636,25892.53750170983,24279.63016529429,-12.31310552598688,-1099.9878868219496,809460.3598408842,0.7576549685418702
461.5000000000364,25891.312663996832,24170.058994403204,-12.248377129966926,-1095.7117089108576,808252.7721804153,0.7552372007686441
461.6000000000364,25890.093546285174,24060.914328019408,-12.191177116599546,-1091.4466638379658,807048.9679655931,0.7528709966470148
461.7000000000364,25888.879610304666,23952.19509157939,-12.139359805089988,-1087.192364400164,805848.8857671673,0.7505432109826502
461.80000000003645,25887.670641103807,23843.90024910504,-12.089692008576556,-1082.9484247434868,804652.4972628831,0.7482331383351283
461.90000000003647,25886.466737521023,23736.028789514046,-12.039035827839758,-1078.7145959099678,803459.8081123503,0.7459195261119184
462.0000000000365,25885.268210566956,23628.57970622045,-11.985269540690853,-1074.4908329359484,802270.8476203575,0.74358758638567
462.1000000000365,25884.075437308606,23521.55197825567,-11.927732583481506,-1070.2772796478346,801085.6525283415,0.7412326682034757
462.20000000003654,25882.88872366281,23414.944558888285,-11.867136457937278,-1066.074193673859,799904.2515194598,0.7388598112924356
462.30000000003656,25881.708218364078,23308.75637393643,-11.805052987328812,-1061.881849518544,798726.6554018087,0.7364801948916033
462.4000000000366,25880.533896183,23202.986328200855,-11.743221810790654,-1057.700457355747,797552.8550039193,0.7341063144176829
462.5000000000366,25879.36560142341,23097.63331626079,-11.682947595872045,-1053.5301194006322,796382.8257753629,0.7317477880234385
462.60000000003663,25878.203123885254,22992.696233551833,-11.62477538157648,-1049.3708270895809,795216.5362015243,0.7294089711793761
462.70000000003665,25877.046274576383,22888.173984243076,-11.56849308872247,-1045.222493087574,794053.9567303804,0.7270886364612986
462.8000000000367,25875.894936124467,22784.06548383625,-11.513384519181416,-1041.085004068254,792895.0663111273,0.7247814671230708
462.9000000000367,25874.749076998505,22680.369637839427,-11.45859125963263,-1036.95845996824,791739.8547613049,0.7224806659954696
463.0000000000367,25873.608734283738,22577.085379916465,-11.403427147663622,-1032.8425792296146,790588.3067903722,0.7201894277226345
463.10000000003674,25872.47397721041,22474.211638446788,-11.347570733270334,-1028.7374146967884,789440.4305688703,0.7178930795131467
463.20000000003677,25871.344869333767,22371.747332471237,-11.291078766428742,-1024.6430597555243,788296.232243241,0.7155928872583142
463.3000000000368,25870.221442473925,22269.69137050024,-11.23426859842581,-1020.5596197099568,787155.7125111697,0.7132922586642745
463.4000000000368,25869.10368850263,22168.042652154334,-11.177539712940002,-1016.4871834590746,786018.8654430341,0.7109953385143567
463.50000000003683,25867.99156722883,22066.800071544832,-11.121212737995531,-1012.425806095028,784885.6795852896,0.708705581523825
463.60000000003686,25866.885023316398,21965.96252087053,-11.0654391243322,-1008.375506743014,783756.1405149342,0.7064248448206037
463.7000000000369,25865.78400376447,21865.528892949776,-11.010195519262963,-1004.3362792075143,782630.2336412363,0.7041532333044896
463.8000000000369,25864.688469545243,21765.498082093258,-10.955342192293111,-1000.3081085652028,781507.9462190235,0.7018895927445424
463.9000000000369,25863.59839886144,21665.868983478154,-10.900706838039174,-996.2909861510437,780389.2680690578,0.6996323183801796
464.00000000003695,25862.513783245417,21566.640491692586,-10.846156160228196,-992.2849178556695,779274.1911012284,0.6973801036507437
464.10000000003697,25861.434620005926,21467.81149924647,-10.79163239491701,-988.2899244611588,778162.7081511274,0.6951323696123017
464.200000000037,25860.360904878384,21369.3808956407,-10.737151275415046,-984.3060360576847,777054.8117572626,0.6928893020647039
464.300000000037,25859.29262753843,21271.347567211764,-10.682773399540697,-980.3332842893582,775950.4933571346,0.6906515895881942
464.40000000003704,25858.229770668215,21173.710387958785,-10.628568702142037,-976.3717925297987,774849.7430894085,0.6884200444877709
464.50000000003706,25857.172312207415,21076.468242843497,-10.57458460799294,-972.4214511528785,773752.5428214341,0.6861998397249778
464.6000000000371,25856.120228372085,20979.620014497745,-10.520838353295828,-968.482283457527,772658.8836753005,0.6839851872950008
464.7000000000371,25855.073496420744,20883.164584018396,-10.467319513397458,-964.5543047934955,771568.7560223816,0.6817765567025703
464.80000000003713,25854.032096084044,20787.10083129679,-10.41400336699844,-960.637527216068,770482.150064393,0.6795740540535312
464.90000000003715,25852.996009557064,20691.427635030097,-10.360865269797669,-956.7319626669347,769399.056054799,0.6773776469837617
