time[s],x[m],y[m],vx[m/s],vy[m/s],theta[rad],theta_dot[rad/s],alpha[rad],gamma[rad],mass[kg],masspropellant[kg],u0
449.7000000000337,26080.4957165731,40290.8038975447,-18.22662813860479,-1637.5149842065325,1.5637732396589805,-0.03219000055601298,-3.137485536934468,4.701258776593448,972881.4197654276,526046.7757517161,1.0
449.8000000000337,26078.692283725864,40127.54240951311,-18.03432847234921,-1632.6148803159083,1.5603125273996048,-0.03460712259375685,-3.1410306177272993,4.701343145126904,971282.4682582192,524447.8242445077,1.0
449.90000000003374,26076.8966554317,39964.77496301503,-17.956282941628636,-1627.674464980819,1.5568261428532095,-0.03486384546395234,-3.144531421273191,4.7013575641264005,969683.5167510108,522848.8727372993,1.0
450.00000000003376,26075.100186354823,39802.50117995849,-17.9646907687894,-1622.7378305653783,1.5534843191221932,-0.03341823731016306,-3.1478345077373873,4.7013188268595805,968084.5652438024,521249.9212300909,1.0
450.1000000000338,26073.286506845965,39640.71847378178,-18.13679508857142,-1617.8270617670746,1.5505767669394366,-0.029075521827565894,-3.150602093538205,4.701178860477642,966485.613736594,519650.9697228825,1.0
450.2000000000338,26071.442717477556,39479.425146238085,-18.4378936840805,-1612.9332754369818,1.5483325683120335,-0.022441986274031968,-3.1526256288475283,4.7009581971595615,964886.6622293856,518052.0182156741,1.0
450.30000000003383,26069.558860004152,39318.6199682966,-18.838574734040655,-1608.0517794147981,1.5469269563784835,-0.014056119335499311,-3.153747405600409,4.700674361978892,963287.7107221772,516453.0667084657,1.0
450.40000000003386,26067.628812484098,39158.30253375116,-19.30047520053955,-1603.1743454544965,1.5464663523552755,-0.004606040232079483,-3.153884297391456,4.700350649746731,961688.7592149688,514854.1152012573,1.0
450.5000000000339,26065.650959807885,38998.47345222986,-19.778526762123672,-1598.2908152129958,1.5469776574135805,0.005113050583049315,-3.1530371561001447,4.700014813513725,960089.8077077604,513255.1636940489,1.0
450.6000000000339,26063.628477398666,38839.134408296566,-20.22482409218276,-1593.3904393329783,1.5484043115835728,0.014266541699922483,-3.1512924010737713,4.699696712657344,958490.856200552,511656.2121868405,1.0
450.7000000000339,26061.569173648502,38680.28808021193,-20.59303750162673,-1588.463280846346,1.5506098838355868,0.02205572252014016,-3.148815697151977,4.699425580987564,956891.9046933436,510057.2606796321,1.0
450.80000000003395,26059.48491268367,38521.93788654434,-20.842609648303792,-1583.5019366759136,1.5533887423644273,0.027788585288405186,-3.1458386462044836,4.699227388568911,955292.9531861352,508458.3091724237,1.0
450.90000000003397,26057.39143052251,38364.08763336346,-20.93482161160409,-1578.5025318088644,1.5564711242546923,0.03082381890265042,-3.1426561768539525,4.6991273011086445,953694.0016789268,506859.35766521527,1.0
451.000000000034,26055.302563324636,38206.74175925343,-20.888671978752864,-1573.458741100227,1.5596152071019669,0.031440828472746755,-3.1394989129989366,4.699114120100903,952095.0501717184,505260.40615800687,1.0
451.100000000034,26053.22840496175,38049.90038398282,-20.741583628885195,-1568.4137527061107,1.5626364736956604,0.03021266593693452,-3.1365287163712225,4.699165190066883,950496.09866451,503661.45465079846,1.0
451.20000000003404,26051.18543257843,37893.56015149531,-20.429723833176606,-1563.4023248751364,1.5652542896136763,0.02617815918015929,-3.1340679575478942,4.699322247161571,948897.1471573015,502062.50314359006,1.0
451.30000000003406,26049.188210245728,37737.718952655116,-19.972223327027237,-1558.4119884019583,1.5672230827885882,0.019687931749120424,-3.1323508460261347,4.699573928814723,947298.1956500931,500463.55163638166,1.0
451.4000000000341,26047.24726639684,37582.37534064699,-19.40943848886943,-1553.436120081212,1.5683664058197453,0.011433230311570316,-3.131528704807117,4.699895110626862,945699.2441428847,498864.60012917325,1.0
451.5000000000341,26045.368262280273,37427.52896585095,-18.79004116566498,-1548.4637479604469,1.568590450266969,0.0022404444722363866,-3.131664491462879,4.700254941729848,944100.2926356763,497265.64862196485,1.0
451.60000000003413,26043.551321411458,37273.18079973863,-18.16940868815166,-1543.4816611232052,1.5678942252909824,-0.006962249759864278,-3.132723595155528,4.70061782044651,942501.3411284679,495666.69711475645,1.0
451.70000000003415,26041.7909175157,37119.33314068935,-17.604038957570044,-1538.476590492769,1.5663704212495313,-0.015238040414510726,-3.134576545118672,4.700946966368203,940902.3896212595,494067.74560754804,1.0
451.8000000000342,26040.076348248986,36965.989386852685,-17.14569266716043,-1533.437538366613,1.5641966809296246,-0.021737403199067824,-3.13701155177134,4.7012082327009646,939303.4381140511,492468.79410033964,1.0
451.9000000000342,26038.392224051713,36813.1536159249,-16.84124197273868,-1528.3577092778155,1.5616260033947893,-0.02570677534835238,-3.1397442473519104,4.7013702507467,937704.4866068427,490869.84259313124,1.0
452.0000000000342,26036.722030797944,36660.8312595747,-16.7019325376755,-1523.2235635020072,1.5589306841878583,-0.026953192069309493,-3.1424938759773227,4.701424560165181,936105.5350996343,489270.89108592283,1.0
452.10000000003424,26035.05493158293,36509.02410500186,-16.670992150153875,-1518.0715457283989,1.5562975321796113,-0.026331520082470267,-3.145110198944865,4.701407731124476,934506.5835924259,487671.93957871443,1.0
452.20000000003427,26033.378122397597,36357.730063488074,-16.76809185334569,-1512.9404151378867,1.55394014661744,-0.023573855621711753,-3.147366173033048,4.701306319650488,932907.6320852175,486072.988071506,1.0
452.3000000000343,26031.673569791685,36206.94667487617,-17.045526059101938,-1507.8338861190068,1.5521455098999166,-0.017946367175233856,-3.1489393074992105,4.701084817399127,931308.6805780091,484474.0365642976,1.0
452.4000000000343,26029.929544378658,36056.67276398288,-17.440254130260872,-1502.7391089328512,1.5511007996017423,-0.010447102981742543,-3.149683058459967,4.700783858061709,929709.7290708007,482875.0850570892,1.0
452.50000000003433,26028.139971452267,35906.90814437252,-17.895729263901707,-1497.6461961036061,1.5509022871272928,-0.001985124744495536,-3.149538024980084,4.700440312107377,928110.7775635923,481276.1335498808,1.0
452.60000000003436,26026.30507824882,35757.653874431504,-18.348932034449014,-1492.5426994101558,1.5515459876069009,0.006437004796080751,-3.1485498719642218,4.700095859571123,926511.8260563839,479677.1820426724,1.0
452.7000000000344,26024.431407497923,35608.91222767091,-18.736707508975122,-1487.4164676059247,1.5529284266194114,0.013824390125104582,-3.1468644067101064,4.699792833329518,924912.8745491755,478078.230535464,1.0
452.8000000000344,26022.531259518255,35460.686377956365,-19.001479796677227,-1482.258497145423,1.5548564545170513,0.019280278976398117,-3.1447139526741195,4.699570407191171,923313.9230419671,476479.2790282556,1.0
452.9000000000344,26020.623608216003,35312.98122500822,-19.076513022507132,-1477.0515294814545,1.5570365592033706,0.021801046863193,-3.1424378734707057,4.6994744326740765,921714.9715347587,474880.3275210472,1.0
453.00000000003445,26018.719911451404,35165.80033328717,-19.036967646003397,-1471.8089172105215,1.5592831970250063,0.02246637821635644,-3.1401721029683682,4.6994552999933745,920116.0200275503,473281.3760138388,1.0
453.10000000003447,26016.831311158512,35019.14419774745,-18.88600292892406,-1466.561355397137,1.561415252565703,0.021320555406968086,-3.138096694772762,4.699511947338465,918517.0685203419,471682.4245066304,1.0
453.2000000000345,26014.970720969373,34873.01017852953,-18.605901891403683,-1461.3401921792458,1.5632278571158278,0.01812604550124839,-3.1364297300495974,4.699657587165425,916918.1170131335,470083.472999422,1.0
453.3000000000345,26013.154761731173,34727.39570682929,-18.159592382004732,-1456.1447170023782,1.5644672870355802,0.012394299197524838,-3.135451331833534,4.699918618869114,915319.1655059251,468484.5214922136,1.0
453.40000000003454,26011.392499538306,34582.30004042048,-17.62262192866054,-1450.9566640881098,1.5649948376036567,0.005275505680764996,-3.135249220802437,4.700244058406094,913720.2139987167,466885.5699850052,1.0
453.50000000003456,26009.686386944617,34437.72371029721,-17.061125936871747,-1445.7633012327342,1.5647733402171653,-0.0022149738649138535,-3.135815413933476,4.700588754150641,912121.2624915083,465286.6184777968,1.0
453.6000000000346,26008.032125821792,34293.66859808209,-16.542611228238577,-1440.5511221511615,1.5638684261067233,-0.009049141104419258,-3.1370375295762587,4.700905955682982,910522.3109842999,463687.6669705884,1.0
453.7000000000346,26006.41886244228,34150.1377424406,-16.13263379513638,-1435.3085564149117,1.5624442148546827,-0.014242112520405196,-3.1387054021135556,4.701149616968238,908923.3594770915,462088.71546338,1.0
453.80000000003463,26004.829081072734,34007.13647455438,-15.897813695443096,-1430.0126788621808,1.5607626419935132,-0.01681572861169441,-3.14050954269809,4.701272184691603,907324.4079698831,460489.7639561716,1.0
453.90000000003465,26003.25261923581,33864.66853664435,-15.76461836925204,-1424.6793791003076,1.5589827569366572,-0.01779885056855973,-3.1423412952772947,4.701324052213952,905725.4564626747,458890.8124489632,1.0
454.0000000000347,26001.678775771088,33722.73522984781,-15.738434647227251,-1419.33306796544,1.5572707281037161,-0.01712028832941058,-3.1440300940480386,4.7013008221517545,904126.5049554663,457291.86094175477,1.0
454.1000000000347,26000.097149800593,33581.335696653805,-15.816259704944843,-1413.995331939998,1.555786460492432,-0.01484267611284103,-3.1454174758000395,4.701203936292472,902527.5534482579,455692.90943454637,1.0
454.2000000000347,25998.49382329048,33440.46732391985,-16.033265101131285,-1408.683727339541,1.5547353232634231,-0.010511372290088998,-3.146272413406601,4.701007736670024,900928.6019410494,454093.95792733796,1.0
454.30000000003474,25996.858318388313,33300.12937607436,-16.355049021656363,-1403.3794784549484,1.5542701280248785,-0.004651952385446171,-3.1464653339045494,4.700735461929428,899329.650433841,452495.00642012956,1.0
454.40000000003477,25995.187962364245,33160.32247213879,-16.703560240688294,-1398.069039355712,1.5544299770819987,0.001598490571202765,-3.146011978473861,4.70044195555586,897730.6989266326,450896.05491292116,1.0
454.5000000000348,25993.487309768065,33021.04834819152,-17.006525961795397,-1392.741239472645,1.5551490072617382,0.007190301797394292,-3.145029750357674,4.700178757619412,896131.7474194242,449297.10340571275,1.0
454.6000000000348,25991.768758655882,32882.31053655452,-17.185511121824348,-1387.378116370037,1.5562496713243772,0.011006640626390552,-3.143752900463284,4.700002571787661,894532.7959122158,447698.15189850435,1.0
454.70000000003483,25990.043385796973,32744.113132740342,-17.253728589089814,-1381.9740381417928,1.5575704425709935,0.013207712466162697,-3.142334343651539,4.6999047862225325,892933.8444050074,446099.20039129595,1.0
454.80000000003486,25988.32096441209,32606.458852869357,-17.224213848813093,-1376.5427987098617,1.5589663858715692,0.013959433005756746,-3.1409105861421107,4.69987697201368,891334.892897799,444500.24888408754,1.0
454.9000000000349,25986.611189418803,32469.348822148666,-17.097749932873743,-1371.1003072069009,1.5602936224878596,0.013272366162903641,-3.139625910057162,4.699919532545022,889735.9413905906,442901.29737687914,1.0
455.0000000000349,25984.923532047356,32332.782323867625,-16.87657371447073,-1365.6649828104134,1.5614125914994472,0.011189690115876401,-3.138619247927143,4.7000318394265905,888136.9898833822,441302.34586967074,1.0
455.1000000000349,25983.265663340535,32196.757975999426,-16.578687068218194,-1360.2434786819922,1.5622107273220183,0.007981358225711239,-3.137990827435842,4.70020155475786,886538.0383761738,439703.39436246234,1.0
455.20000000003495,25981.646835071595,32061.274437322692,-16.18828268938816,-1354.8353867673359,1.5625577893574791,0.0034706203546090173,-3.137883235926454,4.700441025283933,884939.0868689654,438104.44285525393,1.0
455.30000000003497,25980.069151275227,31926.332345624593,-15.776837963689035,-1349.4209169810097,1.5624242958331016,-0.0013349352437754848,-3.1382736554849484,4.70069795131805,883340.135361757,436505.4913480455,1.0
455.400000000035,25978.52680176312,31791.93426559617,-15.423495121081194,-1343.9808002842194,1.5618909255835278,-0.005333702495737404,-3.1390225797871523,4.70091350537068,881741.1838545486,434906.5398408371,1.0
455.500000000035,25977.01193971562,31658.08359183384,-15.148620475017177,-1338.506737623291,1.561068399498958,-0.008225260845696997,-3.1400035114093567,4.701071910908315,880142.2323473402,433307.5883336287,1.0
455.60000000003504,25975.517137389244,31524.783547438583,-14.94802326376876,-1333.000443952589,1.5600635972410344,-0.01004802257923698,-3.1411120359845754,4.70117563322561,878543.2808401318,431708.6368264203,1.0
455.70000000003506,25974.03314593109,31392.036280656746,-14.839914581546084,-1327.4726678183697,1.5590081651662608,-0.010554320747734634,-3.1422022073284666,4.701210372494727,876944.3293329234,430109.6853192119,1.0
455.8000000000351,25972.551662916405,31259.843520180217,-14.814830146862844,-1321.9276047653032,1.5580207744566534,-0.009873907096074353,-3.143161684550278,4.701182459006931,875345.377825715,428510.7338120035,1.0
455.9000000000351,25971.064262671043,31128.204994450716,-14.874002453624032,-1316.3852572950022,1.557219988569745,-0.008007858869082415,-3.1438703469611484,4.7010903355308935,873746.4263185066,426911.7823047951,1.0
456.00000000003513,25969.56468795536,30997.1203231192,-14.995747156810252,-1310.8467133151514,1.5566935776331492,-0.00526410936595813,-3.1442561605403947,4.700949738173544,872147.4748112982,425312.8307975867,1.0
456.10000000003515,25968.049490007466,30866.589566741226,-15.1519794789511,-1305.3075637797542,1.5564898781482404,-0.002036994849087283,-3.1442916471027784,4.700781525251019,870548.5233040898,423713.8792903783,1.0
456.2000000000352,25966.51808593204,30736.61370258287,-15.314040754274487,-1299.7586415835679,1.5566171663710728,0.0012728822283249318,-3.1439901403334574,4.70060730670453,868949.5717968814,422114.9277831699,1.0
456.3000000000352,25964.97282181692,30607.194668509117,-15.45264115120498,-1294.190340737518,1.557043213512563,0.004260471414900158,-3.1434063276731377,4.700449541185701,867350.620289673,420515.9762759615,1.0
456.4000000000352,25963.4187637874,30478.334919880373,-15.540580295203997,-1288.5974862874327,1.5576985837845498,0.006553702719869263,-3.1426309078217134,4.700329491606263,865751.6687824646,418917.0247687531,1.0
456.50000000003524,25961.86309656171,30350.036808604393,-15.556672256887307,-1282.9811127597995,1.5584852036076413,0.007866198230914107,-3.1417789607841398,4.700264164391781,864152.7172752562,417318.0732615447,1.0
456.60000000003527,25960.314513634483,30222.301867526687,-15.48582927224295,-1277.3494107770716,1.5592851682236981,0.007999646160568589,-3.1409809971180955,4.700266165341794,862553.7657680478,415719.1217543363,1.0
456.7000000000353,25958.779527746057,30095.131518612237,-15.349858884264961,-1271.7034891444746,1.5600090483402267,0.007238801165285867,-3.1403102053923053,4.700319253732532,860954.8142608394,414120.1702471279,1.0
456.8000000000353,25957.26485463565,29968.525638857776,-15.146731104073663,-1266.0587975445967,1.5605658997134142,0.005568513731875224,-3.1398599644669227,4.700425864180337,859355.862753631,412521.2187399195,1.0
456.90000000003533,25955.77523705029,29842.48435860541,-14.896175853599823,-1260.41280252367,1.5608918111939196,0.003259114805053168,-3.1396792295980225,4.700571040791942,857756.9112464226,410922.2672327111,1.0
457.00000000003536,25954.312562107283,29717.00834004708,-14.626749430059814,-1254.760185583308,1.5609612781509967,0.0006946695707710062,-3.1397712222708773,4.700732500421874,856157.9597392142,409323.3157255027,1.0
457.1000000000354,25952.876246016538,29592.098947591203,-14.363160907464664,-1249.093924558771,1.5607821792186825,-0.0017909893231434128,-3.1401084441374465,4.700890623356129,854559.0082320058,407724.3642182943,1.0
457.2000000000354,25951.46293154259,29467.758223014433,-14.133144739482612,-1243.4072457676955,1.5603991217752007,-0.0038305744348180702,-3.140623883235201,4.701023005010402,852960.0567247974,406125.41271108587,1.0
457.3000000000354,25950.06723939371,29343.988116092874,-13.956921488806934,-1237.7010692155873,1.5598832257709685,-0.005158960042321193,-3.1412297443577133,4.701112970128682,851361.105217589,404526.46120387746,1.0
457.40000000003545,25948.682395996562,29220.789932537824,-13.848433971452337,-1231.9818355505001,1.559323385596238,-0.00559840174730438,-3.1418252904733026,4.701148676069541,849762.1537103805,402927.50969666906,1.0
457.50000000003547,25947.303374378393,29098.16517607378,-13.790216181705043,-1226.2475646404382,1.5587866517203857,-0.005367338758524616,-3.142356936399189,4.7011435881195744,848163.2022031721,401328.55818946066,1.0
457.6000000000355,25945.92380429226,28976.11494992185,-13.795700861343152,-1220.5022615193036,1.5583558580592334,-0.004307936611522798,-3.1427303056019698,4.701086163661203,846564.2506959637,399729.60668225226,1.0
457.7000000000355,25944.539306152306,28854.64026204557,-13.84498139953042,-1214.746878762829,1.5580879369523615,-0.00267921106871862,-3.142904116060011,4.7009920530123726,844965.2991887553,398130.65517504385,1.0
457.80000000003554,25943.147858477216,28733.741809162802,-13.914476750907701,-1208.9845288276922,1.5580092255771931,-0.0007871137516832975,-3.1428710364684345,4.700880262045628,843366.3476815469,396531.70366783545,1.0
457.90000000003556,25941.749707565898,28613.420815086796,-13.98150911318396,-1203.209940760054,1.5581168265566152,0.0010760097942217736,-3.1426525026017575,4.700769329158373,841767.3961743385,394932.75216062705,1.0
458.0000000000356,25940.347258046902,28493.679146769067,-14.024495189963007,-1197.4166831772952,1.5583803086675694,0.002634821109542806,-3.1422969141004256,4.700677222767995,840168.4446671301,393333.80065341864,1.0
458.1000000000356,25938.944719244744,28374.517756416775,-14.025388021583005,-1191.6139035229082,1.5587462957625589,0.0036598709498949014,-3.1418731505757487,4.700619446338307,838569.4931599217,391734.84914621024,1.0
458.20000000003563,25937.547561976975,28255.938009882062,-13.971572677701086,-1185.7974653471138,1.5591458937430207,0.003995979804617741,-3.1414612043198433,4.700607098062864,836970.5416527133,390135.89763900184,1.0
458.30000000003565,25936.158939397086,28137.94145843975,-13.88622579889506,-1179.9655144231338,1.5595382329116643,0.003923391686434537,-3.1410829588121443,4.700621191723808,835371.5901455049,388536.94613179343,1.0
458.4000000000357,25934.78416760399,28020.52872942403,-13.747717930969864,-1174.1272901571917,1.5598568998759417,0.003186669642774862,-3.1408237335205493,4.700680633396491,833772.6386382965,386937.99462458503,1.0
458.5000000000357,25933.426690197513,27903.70048900693,-13.57477406475353,-1168.2824041709894,1.5600588327979525,0.0020193292201077934,-3.140711241789121,4.700770074587074,832173.6871310881,385339.0431173766,1.0
458.6000000000357,25932.08803466124,27787.458287370926,-13.38655536273297,-1162.4220163600244,1.5601250159398263,0.0006618314187369998,-3.1407483845220217,4.700873400461848,830574.7356238797,383740.0916101682,1.0
458.70000000003574,25930.767829794833,27671.803318509552,-13.202048664043637,-1156.5496886137544,1.5600599847809504,-0.0006503115887585256,-3.1409144619982086,4.700974446779159,828975.7841166713,382141.1401029598,1.0
458.80000000003577,25929.463941714614,27556.737315945327,-13.038880802190084,-1150.6600256422303,1.5598900305409078,-0.0016995424004264473,-3.141167781242431,4.701057811783339,827376.8326094629,380542.1885957514,1.0
458.9000000000358,25928.172875398857,27442.260903336264,-12.910663157569052,-1144.7641260906255,1.559657833638514,-0.00232196902393778,-3.141453613216992,4.701111446855506,825777.8811022545,378943.237088543,1.0
