time[s],x[m],y[m],vx[m/s],vy[m/s],theta[rad],theta_dot[rad/s],gamma[rad],alpha[rad],mass[kg],mass_propellant[kg]
449.7000000000337,26080.49541746606,40290.72527011295,-18.229619209005385,-1638.3012585239778,1.5637732396589805,-0.03219000055601298,4.701262292412634,-3.137489052753654,973094.3214679485,526259.677454237
449.8000000000337,26078.691123237066,40127.3062940219,-18.042942289949217,-1634.1897609104242,1.5603125671572893,-0.03460672501691149,4.70134851885443,-3.1410359516971407,971708.2550616985,524873.611047987
449.90000000003374,26076.89378766888,39964.3022725938,-17.973355681850435,-1630.0402142810074,1.5568264688776066,-0.03486098279682606,4.701363100668311,-3.144536631790704,970322.1732745891,523487.52926087764
450.00000000003376,26075.094460106782,39801.712572178716,-17.993275620982036,-1625.8970041508549,1.5534857803314954,-0.03340688546111092,4.701322755970962,-3.147836975639466,968936.0772052532,522101.4331915417
450.1000000000338,26073.276445206924,39639.53436130705,-18.180148998575365,-1621.782108716654,1.5505816121793023,-0.029041681521929857,4.701179467448288,-3.1505978552689857,967549.9672199016,520715.32320619014
450.2000000000338,26071.426558755924,39477.76569633129,-18.498864510006154,-1617.6866497576261,1.5483444116353422,-0.02237200543960058,4.700954096983056,-3.1526096853477137,966163.8428302532,519329.1988165417
450.30000000003383,26069.53462539561,39316.40510513598,-18.919333603144544,-1613.6059119531412,1.5469505506987153,-0.01393860936626749,4.7006646389144215,-3.153714088215706,964777.7037921672,517943.05977845576
450.40000000003386,26067.594406701555,39155.45194359578,-19.402186940526366,-1609.5316154020375,1.5465069619812872,-0.004435887174281896,4.700335009499787,-3.153828047518499,963391.5501056438,516556.9060919323
450.5000000000339,26065.604297454676,38994.90659092113,-19.901092468783173,-1605.453526746499,1.5470400539408753,0.005330919595879675,4.69999368341529,-3.1529536294744145,962005.3817706829,515170.7377569714
450.6000000000339,26063.56762291302,38834.77050969806,-20.36674541658633,-1601.360812230707,1.5484914993865997,0.014514454457242936,4.699671267294342,-3.151179767907742,960619.1995197063,513784.5555059948
450.7000000000339,26061.49247863196,38675.046162078535,-20.751442810575444,-1597.2434761952181,1.5507217347494247,0.0223023536282494,4.699397676508863,-3.1486759417594388,959233.003718925,512398.3597052136
450.80000000003395,26059.391136636063,38515.73674725544,-21.013419958991097,-1593.0941482309286,1.5535207006546885,0.027989659052638803,4.699199426308656,-3.1456787256539673,957846.7954669719,511012.15145326045
450.90000000003397,26057.279997002093,38356.845902690664,-21.11139633969338,-1588.9084456477622,1.5566105454593724,0.030898448046837793,4.69910303290693,-3.1424924874475573,956460.5756183391,509625.93160462764
451.000000000034,26055.172811051365,38198.377672071896,-21.071859507292597,-1584.6823061876544,1.5597533826944272,0.03142837235054744,4.6990925501726615,-3.1393391674782345,955074.3456378704,508239.7016241589
451.100000000034,26053.080077298408,38040.33172755662,-20.927337529582903,-1580.4594451527264,1.5627613387246637,0.03007956030236432,4.699148454254813,-3.13638711553015,953688.1066241985,506853.462610487
451.20000000003404,26051.01907456958,37882.704371765234,-20.61002728826628,-1576.273557913892,1.5653435597458158,0.025822210211520966,4.699314566486159,-3.133971006740343,952301.8589435344,505467.21492982295
451.30000000003406,26049.0045285064,37725.49322982042,-20.14546063179333,-1572.1114194481486,1.5672538359208505,0.019102761750346496,4.699575411431548,-3.132321575510697,950915.601741386,504080.9577276745
451.4000000000341,26047.04694732547,37568.69663414401,-19.57581180929349,-1567.9659567641002,1.5683175101064484,0.010636741855978689,4.6999047840810615,-3.1315872739746133,949529.3348956829,502694.6908819714
451.5000000000341,26045.15170335642,37412.314065631384,-18.952439690504328,-1563.8256851262786,1.5684462464768913,0.001287363704430106,4.700270294740557,-3.131824048263666,948143.0585284954,501308.4145147839
451.60000000003413,26043.318357611355,37256.34636900889,-18.33345745063719,-1559.676966224967,1.5676482787133112,-0.007979677635801957,4.700634871342462,-3.132986592629151,946756.7725177532,499922.1285040417
451.70000000003415,26041.54059618791,37100.7957388612,-17.777614234431457,-1555.5063014769246,1.5660285677865369,-0.01619710926774351,4.700960649781294,-3.134932081994757,945370.4775958782,498535.8335821667
451.8000000000342,26039.806760226646,36945.665457490795,-17.3383596126566,-1551.3028137040242,1.5637792688387768,-0.02249298947760147,4.701212801524266,-3.1374335326854887,943984.1742511516,497149.53023744014
451.9000000000342,26038.100017854726,36790.959570007384,-17.067423719212798,-1547.0588748340876,1.561175065926346,-0.026042029124309647,4.7013572532614365,-3.140182187335091,942597.8638263469,495763.21981263545
452.0000000000342,26036.404859333794,36636.68309399661,-16.951585209323827,-1542.7647601077408,1.558472408766743,-0.027026571596029333,4.701401626058672,-3.142929217291929,941211.5477863079,494376.9037725964
452.10000000003424,26034.70990546524,36482.836939905304,-16.949538685543036,-1538.4615409130215,1.5558645349056277,-0.026078738611152667,4.70137222597532,-3.1455076910696924,939825.2273517376,492990.5833380261
452.20000000003427,26033.00011281161,36329.41798455657,-17.097926536300765,-1534.189553487408,1.5535970882826113,-0.02267446623016259,4.701244843283639,-3.147647755001028,938438.9033771282,491604.2593634167
452.3000000000343,26031.25823756128,36176.423936832274,-17.418752503299167,-1529.9404772429464,1.5519446406944388,-0.016524475881725304,4.701004223793088,-3.1490595830986496,937052.5751300579,490217.9311163464
452.4000000000343,26029.47316930611,36023.85346446999,-17.850682551697027,-1525.7047236228743,1.5510839593313137,-0.008606813631250806,4.700689555311611,-3.149605595980297,935666.2520099407,488831.6079962292
452.50000000003433,26027.639945314368,35871.70633658408,-18.332239917424097,-1521.4712788590664,1.5510933888326988,9.429501385145242e-05,4.700340542075114,-3.1492471532424156,934279.9399982219,487445.29598451045
452.60000000003436,26025.760347240503,35719.98363296581,-18.795980738666984,-1517.2270361827073,1.5519443084004771,0.008509195677783682,4.700001236937318,-3.1480569285368407,932893.6392169719,486058.99520326045
452.7000000000344,26023.84276668911,35568.68764443303,-19.175805513908895,-1512.959885327834,1.5535041566681225,0.015598482676453296,4.699715294187589,-3.146211137519467,931507.3502765422,484672.70626283076
452.8000000000344,26021.901748490345,35417.821531787966,-19.41018198766376,-1508.661126450619,1.555544844100002,0.020406874318794597,4.699523857285269,-3.143979013185267,930121.0739093547,483286.42989564326
452.9000000000344,26019.95560762845,35267.3903512085,-19.461408618946468,-1504.3118057946467,1.5577805066308283,0.02235662530826457,4.6994526177815255,-3.1416721111506973,928734.8117023235,481900.167688612
453.00000000003445,26018.016700509754,35117.39644019889,-19.389071186947472,-1499.9391100960895,1.5600120586573054,0.0223155202647714,4.699463128116715,-3.13945106945941,927348.5652423626,480513.9212286511
453.10000000003447,26016.095865230545,34967.838884177545,-19.208352792080888,-1495.57556021346,1.5620631308074473,0.020510721501418694,4.699546234594342,-3.1374831037868947,925962.3355060344,479127.69149232295
453.2000000000345,26014.20951907018,34818.71381335482,-18.863461603668142,-1491.2507082272268,1.5636778809648555,0.016147501574081846,4.699740231589368,-3.136062350624513,924576.1226154094,477741.47860169795
453.3000000000345,26012.371832610937,34670.019247177996,-18.376864592411156,-1486.9456617682763,1.5646383999441567,0.009605189793010994,4.700030809186162,-3.135392409242005,923189.9254718547,476355.28145814326
453.40000000003454,26010.58964188342,34521.754571267746,-17.82190727516544,-1482.6467591024877,1.5648397924765263,0.002013925323696354,4.70036922659828,-3.1355294341217537,921803.7441974407,474969.1001837292
453.50000000003456,26008.862520357165,34373.920598512916,-17.271215262553728,-1478.3397275483092,1.5642889181308817,-0.0055087434564470425,4.700706665941844,-3.1364177478109623,920417.5787921672,473582.93477845576
453.6000000000346,26007.18279631863,34226.51951686783,-16.797240385360837,-1474.0108164507974,1.5631031517054181,-0.011857664254635386,4.7009938717739175,-3.1378907200684996,919031.4297443157,472196.7857306042
453.7000000000346,26005.53505119332,34079.55517740097,-16.47745125307558,-1469.6433946685925,1.5615159044385645,-0.015872472668536287,4.701177579764273,-3.139661675325709,917645.2980304485,470810.654016737
453.80000000003463,26003.90498082321,33933.032456511435,-16.300703701112123,-1465.2272088953775,1.5597466073284678,-0.017692971100966327,4.701264404510754,-3.141517797182286,916259.1851154094,469424.54110169795
453.90000000003465,26002.280534583882,33786.95366440399,-16.244462393262214,-1460.7879210744584,1.5579823784471747,-0.01764228881293133,4.7012690959710115,-3.1432867175238366,914873.0924640422,468038.44845033076
454.0000000000347,26000.65141543198,33641.31847464006,-16.29119151899475,-1456.3518976393084,1.5563838032868713,-0.015985751603034715,4.701203145372792,-3.1448193420859205,913487.0210529094,466652.37703919795
454.1000000000347,25999.00610742175,33496.12477597402,-16.453080102310956,-1451.9369866603915,1.5551262470844405,-0.012575562024308366,4.701057651228547,-3.1459314041441067,912100.9713702922,465266.32735658076
454.2000000000347,25997.329927522253,33351.36997956675,-16.761798994944343,-1447.5479640727317,1.5544262488006197,-0.006999982838208244,4.700810054980493,-3.1463838061798732,910714.9428058391,463880.29879212764
454.30000000003474,25995.616852526906,33207.05384481082,-17.130749953478603,-1443.1613475592726,1.5543727193410488,-0.0005352945957089756,4.700519243536454,-3.146146524195405,909328.9351154094,462494.29110169795
454.40000000003477,25993.86901493089,33063.17742194108,-17.47837596016089,-1438.7642286973933,1.554934325706913,0.0056160636586418565,4.700241391587828,-3.145307065880915,907942.9485431438,461108.3045294323
454.5000000000348,25992.096972506413,32919.74340554538,-17.720424244780215,-1434.3401639569938,1.5559570296094383,0.010227039025251685,4.700035200431951,-3.1440781708225125,906556.9836993938,459722.3396856823
454.6000000000348,25990.313931976256,32776.75602820106,-17.8304053015862,-1429.8737734431663,1.5572472820927865,0.012902524833481708,4.699919711057029,-3.142672428964242,905171.0416827922,458336.39766908076
454.70000000003483,25988.52983752553,32634.21814336857,-17.840944507268937,-1425.3788483249007,1.5586558968359776,0.014086147431910329,4.699873000562669,-3.1412171037266914,903785.1238361126,456950.4798224011
454.80000000003486,25986.755081512787,32492.13041040169,-17.747560127435282,-1420.877329668785,1.5600269225083065,0.013710256723289613,4.699899065255424,-3.139872142747117,902399.2315021282,455564.5874884167
454.9000000000349,25985.000188993854,32350.492449631543,-17.548925189339105,-1416.3796077014408,1.5612035762253125,0.011766537170059394,4.6999996271437245,-3.138796050918412,901013.3651691204,454178.7211554089
455.0000000000349,25983.27356922603,32209.30265723098,-17.26619767826458,-1411.897924005627,1.5620606699269752,0.008570937016627748,4.700160520563913,-3.138099850636938,899627.5249591594,452792.88094544795
455.1000000000349,25981.584700540385,32068.559181161207,-16.88868685642221,-1407.4347606977246,1.5624613798566067,0.004007099296314685,4.700389933045536,-3.13792855318893,898241.710750175,451407.0667364636
455.20000000003495,25979.93692587684,31928.261845157373,-16.477746635455148,-1402.9733600383354,1.5623579441777078,-0.0010343567889890427,4.700644645453445,-3.138286701275737,896855.9222980266,450021.27828431514
455.30000000003497,25978.324861547393,31788.412900631225,-16.120643294441457,-1398.4894452614706,1.5618269197623498,-0.005310244153579912,4.70086230823799,-3.13903538847564,895470.159968925,448635.5159552136
455.400000000035,25976.740392440002,31649.015488379766,-15.844691073892273,-1393.9741225145956,1.560985168709459,-0.008417510528907645,4.701022909451419,-3.14003774074196,894084.4246173626,447249.7806036511
455.500000000035,25975.175453017004,31510.072532595157,-15.649394229985862,-1389.4295578460972,1.5599505258193347,-0.010346428901242419,4.701126277331197,-3.141175751511862,892698.7177081829,445864.0736944714
455.60000000003504,25973.61997268297,31371.58579272454,-15.554803340348538,-1384.867398706167,1.558868787139025,-0.01081738680309687,4.70115747238137,-3.142288685242345,891313.0398517376,444478.3958380261
455.70000000003506,25972.064740920257,31233.55631009736,-15.552317627122006,-1380.29482627183,1.557873470338907,-0.009953168001179763,4.701122068969766,-3.1432485986308585,889927.3925128704,443092.7484991589
455.8000000000351,25970.500820523444,31095.98360867135,-15.639203968143352,-1375.7270142600728,1.5570927008849373,-0.007807694539695839,4.701021514185868,-3.1439288133009304,888541.7759357219,441707.13192201045
455.9000000000351,25968.92171953405,30958.866976998397,-15.791009893954582,-1371.1663167295362,1.5566191563439384,-0.004735445409988081,4.700873009171071,-3.1442538528271324,887156.1904865032,440321.5464727917
456.00000000003513,25967.324258695236,30822.206253558696,-15.974608388139291,-1366.6072343969986,1.5564981726692833,-0.0012098367465514862,4.700700266565768,-3.1442020938964848,885770.6361652141,438935.99215150264
456.10000000003515,25965.70858636603,30686.0022789006,-16.156723292064036,-1362.0397465809515,1.5567277399432529,0.0022956727396958735,4.70052738413624,-3.1437996441929874,884385.1132159954,437550.4692022839
456.2000000000352,25964.07810195573,30550.25681762902,-16.30484410299884,-1357.454612715815,1.557259953152763,0.005322132095103051,4.700378221493594,-3.1431182683408307,882999.6221271282,436164.9781134167
456.3000000000352,25962.43925757137,30414.97212731081,-16.38844384362249,-1352.8469031820782,1.5580043229231735,0.007443697704104321,4.700275531178004,-3.1422712082548307,881614.1639972454,434779.5199835339
456.4000000000352,25960.800667056385,30280.150172165566,-16.385905149829536,-1348.2195514524394,1.5588405153584182,0.008361924352447236,4.700235842271358,-3.1413953269129395,880228.7395587688,433394.0955450573
456.50000000003524,25959.16997804581,30145.79153229919,-16.306890105737768,-1343.5863986637385,1.559660806578293,0.00820291219875018,4.7002527385255695,-3.1405919319472764,878843.3499103313,432008.7058966198
456.60000000003527,25957.55645031151,30011.89650197793,-16.135277343032907,-1338.9503032125983,1.560336892729221,0.00676086150927759,4.700338871936427,-3.1400019792072067,877457.9951740032,430623.3511602917
456.7000000000353,25955.966538776178,29878.464682856982,-15.899115353300502,-1334.3181912094929,1.5607791730751304,0.004422803459095388,4.700474009075663,-3.1396948360005323,876072.6760822063,429238.0320684948
456.8000000000353,25954.403626949334,29745.496064731706,-15.629118268450478,-1329.6861812527752,1.5609407078199609,0.0016153474483043603,4.700635531492149,-3.139694823672188,874687.3928790813,427852.7488653698
456.90000000003533,25952.867997806563,29612.991378311766,-15.356291427720343,-1325.0468641994107,1.5608175846218655,-0.001231231980954266,4.700800255190221,-3.1399826705683553,873302.1458087688,426467.5017950573
457.00000000003536,25951.356882958815,29480.95209451979,-15.11114847747338,-1320.3928379197391,1.5604479058558922,-0.0036967876597335026,4.700945046149761,-3.140497140293869,871916.9354816204,425082.2914679089
457.1000000000354,25949.864607983094,29349.380334854846,-14.92274975722066,-1315.7175966494608,1.5599092309871383,-0.005386748687540178,4.701047557299277,-3.141138326312139,870531.7625079876,423697.1184942761
457.2000000000354,25948.383425364464,29218.277013733106,-14.811826186321623,-1311.0332112173899,1.559306599428262,-0.006026315588761933,4.701091634207931,-3.1417850347796694,869146.6278644329,422311.9838507214
457.3000000000354,25946.907422270673,29087.64321809904,-14.760030937895818,-1306.3379563406465,1.5587211717824354,-0.005854276458266036,4.701090676746336,-3.1423695049639004,867761.5322833782,420926.8882696667
457.40000000003545,25945.42878054945,28957.47959117447,-14.786417212222364,-1301.6362692457142,1.558257969032843,-0.004632027495922886,4.701029600222119,-3.142771631189276,866376.4762531047,419541.83223939326
457.50000000003547,25943.942351460104,28827.786617460315,-14.86429089347039,-1296.9297371415605,1.5579861557441157,-0.002718132887274887,4.7009283440272975,-3.1429421882831816,864991.4602618938,418156.8162481823
457.6000000000355,25942.445949737026,28698.564641139466,-14.964017230787638,-1292.2197632084778,1.5579351142294795,-0.0005104151463625499,4.700809411005726,-3.142874296776246,863606.4847980266,416771.84078431514
457.7000000000355,25940.94019008234,28569.81454761376,-15.05759654686367,-1287.5009352570364,1.558096808233965,0.0016169400448561586,4.700694301433424,-3.1425974931994594,862221.5504718547,415386.90645814326
457.80000000003554,25939.428372653943,28441.537472474512,-15.118174283953584,-1282.7707513924943,1.5584276038260014,0.003307955920363834,4.700603963960624,-3.1421763601346226,860836.6577716594,414002.01375794795
457.90000000003556,25937.916117875226,28313.735189082014,-15.122547787186628,-1278.0228339249754,1.5588536076720632,0.004260038460617023,4.700556764516882,-3.1417031568448195,859451.8073077922,412617.16329408076
458.0000000000356,25936.410547306787,28186.40812769892,-15.055705684398777,-1273.270613830937,1.5592815276918957,0.004279200198325519,4.700565096367267,-3.1412835686753713,858066.9999347454,411232.3559210339
458.1000000000356,25934.915059072682,28059.55645626877,-14.95488234103906,-1268.516714301515,1.559665525276232,0.003839975843362726,4.70060025944284,-3.140934734166608,856682.2362628704,409847.5922491589
458.20000000003563,25933.434927038623,27933.181450936998,-14.801320340591815,-1263.7500533177038,1.5599369720422314,0.00271446765999544,4.700677294548164,-3.140740322505933,855297.5166583782,408462.8726446667
458.30000000003565,25931.973111452833,27807.28331133918,-14.618155857893372,-1258.981395978194,1.5600572854543604,0.001203134121289898,4.7007784045417464,-3.1407211190873863,853912.8417316204,407078.1977179089
458.4000000000357,25930.53003038127,27681.862817963123,-14.430810715631361,-1254.2049337605513,1.5600209949366268,-0.0003629051773349605,4.700883544899755,-3.1408625499631277,852528.2119708782,405693.5679571667
458.5000000000357,25929.103641221085,27556.920601192815,-14.263891601833524,-1249.4221677030791,1.5598543463032235,-0.0016664863340331035,4.7009730856382355,-3.141118739335012,851143.6277423626,404308.9837286511
458.6000000000357,25927.690154708303,27432.457683573066,-14.13486512781981,-1244.6291761974687,1.5596060318196039,-0.0024831448361970886,4.701032780669345,-3.141426748849741,849759.0897784954,402924.4457647839
458.70000000003574,25926.284393047787,27308.4753953158,-14.057616605153576,-1239.8228825726676,1.5593421947537331,-0.0026383706587079564,4.701051059109053,-3.14170886435532,848374.5985675579,401539.9545538464
458.80000000003577,25924.88491374041,27184.9746672024,-13.994793073754558,-1235.0072811339871,1.5590826230058707,-0.0025957174786245766,4.701057715932512,-3.141975092926641,846990.1550861126,400155.5110724011
458.9000000000358,25923.48691473911,27061.955543576612,-13.979990012983352,-1230.1912362578798,1.5588880361636241,-0.0019458684224657342,4.701025390850823,-3.142137354687199,845605.7597003704,398771.1156866589
459.0000000000358,25922.087587426795,26939.419809545085,-13.993273123157055,-1225.3573403152932,1.5587941756722714,-0.0009386049135266495,4.7009697278779345,-3.1421755522056634,844221.4126544719,397386.76864076045
459.10000000003583,25920.686209764186,26817.368547304806,-14.01377662608799,-1220.5126224027676,1.5588103177712163,0.0001614209894482562,4.700907607239419,-3.1420972894682024,842837.1152911907,396002.4712774792
