time[s],x[m],y[m],vx[m/s],vy[m/s],theta[rad],theta_dot[rad/s],gamma[rad],alpha[rad],mass[kg],mass_propellant[kg]
449.7000000000337,26080.495366690804,40290.711922624105,-18.230126961553427,-1638.4347334124536,1.5637732396589805,-0.03219000055601298,4.701262888909499,-3.137489649250518,973130.4627033,526295.8186895886
449.8000000000337,26078.690925696657,40127.266135315025,-18.044409941455445,-1634.4578730908086,1.5603125739484152,-0.034606657105653506,4.701349431921141,-3.141036857972726,971780.7513995891,524946.1073858776
449.90000000003374,26076.89329812679,39964.22172167821,-17.976275698685544,-1630.4441363681674,1.5568265245192192,-0.03486049429195876,4.701364041254698,-3.144537516735479,970431.2393146282,523596.5953009167
450.00000000003376,26075.093479853786,39801.57792834284,-17.99818273003812,-1626.4379333536876,1.5534860300630329,-0.03340494456186238,4.701323419412888,-3.147837389349855,969081.9292560344,522247.28524232295
450.1000000000338,26073.27471807252,39639.33180412393,-18.187617812646106,-1622.461242189079,1.5505824410885465,-0.02903588974486386,4.701179556351565,-3.150597115263018,967732.8209796672,520898.17696595576
450.2000000000338,26071.42377769169,39477.48128552188,-18.509403808309916,-1618.5051860205472,1.5483464402624694,-0.02236000826077044,4.70095336861379,-3.1526069283513207,966383.9131427532,519549.2691290417
450.30000000003383,26069.530443886757,39316.02478092688,-18.933338049332857,-1614.565045949985,1.5469545971762364,-0.013918430862330116,4.700662930505607,-3.1537083333293707,965035.2047687297,518200.56075501826
450.40000000003386,26067.58845611722,39154.961527630236,-19.41987769535998,-1610.632532966417,1.5465139344578303,-0.004406627184062175,4.700332265831428,-3.153818331373598,963686.6948810344,516852.05086732295
450.5000000000339,26065.596209128485,38994.291787347494,-19.922469887346356,-1606.6974028274176,1.5470507768006792,0.0053684234284894945,4.699989975498818,-3.1529391986981388,962338.3837238079,515503.7397100964
450.6000000000339,26063.557052850505,38834.016906364915,-20.391562779819033,-1602.748809825764,1.5485064911420996,0.014557143414205035,4.6996667980368,-3.1511603068947003,960990.2714191204,514155.6274054089
450.7000000000339,26061.47913198793,38674.139231148154,-20.779208625747973,-1598.7767521676017,1.5507409685578997,0.022344774158000846,4.699392770185416,-3.1486518016275165,959642.3589435344,512807.71492982295
450.80000000003395,26059.37478950961,38514.66184414595,-21.043424783185046,-1594.7738700220386,1.5535433745509026,0.028024059930030123,4.699194505615944,-3.1456511310650415,958294.6477618938,511460.0037481823
450.90000000003397,26057.260544544915,38355.58827320087,-21.142449646943412,-1590.7357094508234,1.5566343943253675,0.03091019774464894,4.699098774656131,-3.142464380330763,956947.1399493938,510112.4959356823
451.000000000034,26055.15013419625,38196.92241022893,-21.10410348664547,-1586.6586297193876,1.5597768342804412,0.03142439955073762,4.699088791753619,-3.1393119574731774,955599.8378253704,508765.1938116589
451.100000000034,26053.054122342313,38038.66377353334,-20.960118539354536,-1582.5863669558848,1.5627823305505852,0.030054962701439987,4.6991455368844415,-3.136363206333856,954252.7437091594,507418.09969544795
451.20000000003404,26050.989930220054,37880.80852596202,-20.641921222585772,-1578.5524757132112,1.5653582115764146,0.025758810258294282,4.6993132384571545,-3.1339550268807397,952905.857600761,506071.2135870495
451.30000000003406,26048.972316236453,37723.3541657248,-20.17613983600979,-1574.5436023722414,1.5672580957562048,0.0189988417979009,4.699575720959404,-3.132317625203199,951559.1774249797,504724.53341126826
451.4000000000341,26047.011786884297,37566.29890672645,-19.605293521547704,-1570.5525899834968,1.5683076140595897,0.010495183033848896,4.6999065742561825,-3.131598960196593,950212.7020831829,503378.0580694714
451.5000000000341,26045.11366370834,37409.64212047257,-18.98123175958683,-1566.567862538784,1.5684193868169074,0.001117727573176389,4.700273129275807,-3.1318537424588997,948866.4304767376,502031.7864630261
451.60000000003413,26043.277406806483,37253.38454976065,-18.36256901856944,-1562.5757071191974,1.5676032861969236,-0.008161006199837555,4.700638046505411,-3.133034760308487,947520.3626056438,500685.7185919323
451.70000000003415,26041.49654782451,37097.52829162804,-17.80858981973818,-1558.56258132612,1.565966650551992,-0.016366356449314973,4.700963186474832,-3.1349965359228396,946174.4993243938,499339.8553106823
451.8000000000342,26039.759245259935,36942.076527542726,-17.373025645768852,-1554.5176408531192,1.5637043753157063,-0.022622752362858073,4.701213615145236,-3.13750923982953,944828.8417316204,497994.1977179089
451.9000000000342,26038.048380220735,36787.033245541716,-17.10865039201336,-1550.4328200100979,1.5610954431948671,-0.026089321208390467,4.7013546706065785,-3.140259227411711,943483.3920245891,496648.74801087764
452.0000000000342,26036.348638552994,36632.403275975965,-16.997416677401382,-1546.2996956574923,1.558393123316604,-0.02702319878263085,4.701397105931371,-3.1430039826147675,942138.1527667766,495303.50875306514
452.10000000003424,26034.648556177253,36478.18726090272,-17.000823757392073,-1542.1601507324585,1.555791555435651,-0.026015678809529486,4.701365394345224,-3.145573838909573,940793.1270099407,493958.4829962292
452.20000000003427,26032.93273442804,36324.38188418126,-17.158217492150474,-1538.0537672146156,1.5535414539034236,-0.02250101532227423,4.7012336449078145,-3.147692191004391,939448.3151202922,492613.67110658076
452.3000000000343,26031.184054946327,36170.98476093902,-17.486794817127198,-1533.971232422444,1.5519153351282815,-0.01626118775142099,4.700989785262911,-3.149074450134629,938103.7156329876,491269.0716192761
452.4000000000343,26029.39152601759,36017.994455689484,-17.925289287384008,-1529.903052495381,1.5510879509595734,-0.008273841687080244,4.700672898722095,-3.1495849477625217,936759.3270831829,489924.6830694714
452.50000000003433,26027.550394184495,35865.410655913576,-18.411318330940162,-1525.837997759095,1.551134259365953,0.0004630840637948365,4.700323200864996,-3.149188941499043,935415.1492267376,488580.5052130261
452.60000000003436,26025.662728699583,35713.23436992701,-18.876654849110725,-1521.7628598656179,1.5520210716374374,0.00886812271484461,4.6999851510839,-3.1479640794464627,934071.181819511,487236.5378057995
452.7000000000344,26023.737260756636,35561.46781380749,-19.2546794294702,-1517.6655611952708,1.5536104775580042,0.015894059205666788,4.699702623826349,-3.146092146268345,932727.4257159954,485892.7817022839
452.8000000000344,26021.78898332432,35410.11408165752,-19.482774323151936,-1513.537321499665,1.5556674270891617,0.020569495311575654,4.699517346449667,-3.1438499193605054,931383.8825031047,484549.23848939326
452.9000000000344,26019.835933003822,35259.17809466008,-19.53050320497581,-1509.3598699744432,1.5579098785057273,0.02242451416565635,4.69945010895613,-3.1415402304504028,930040.5541339641,483205.91012025264
453.00000000003445,26017.889057426484,35108.66195076729,-19.468755773364165,-1505.161438927931,1.5601594892611255,0.02249610755398224,4.6994550387917675,-3.139295549530642,928697.4439044719,481862.79989076045
453.10000000003447,26015.960980168613,34958.564328854496,-19.280772578695952,-1500.9762191279062,1.5622135134814714,0.020540242203458754,4.699544198466592,-3.1373306849851206,927354.552913261,480519.9088995495
453.2000000000345,26014.068976984145,34808.88111760954,-18.920031844675208,-1496.832112449521,1.5638033186880456,0.01589805206574072,4.699749604090768,-3.1359462854027225,926011.881038261,479177.2370245495
453.3000000000345,26012.22684592676,34659.610291197336,-18.421310573833203,-1492.7082641220338,1.5647164450567177,0.009131263686721708,4.700048742220084,-3.135332297163367,924669.4258380657,477834.7818243542
453.40000000003454,26010.440996827037,34510.75118266329,-17.858490997243756,-1488.5910853404257,1.564854485067825,0.001380400111073354,4.700392647421836,-3.135538162354011,923327.1864581829,476492.5424444714
453.50000000003456,26008.710383547088,34362.30459661954,-17.306132799508056,-1484.4658604374865,1.5642338078058367,-0.006206772619883703,4.700731353702732,-3.1364975458968956,921985.1625324016,475150.51851869014
453.6000000000346,26007.026554785247,34214.272730591205,-16.83828761840579,-1480.318660283401,1.5629837742500299,-0.012500335558067746,4.701014698673087,-3.1380309244230573,920643.3546710735,473808.710657362
453.7000000000346,26005.372986961105,34066.65974378101,-16.535678241415226,-1476.1298681019,1.5613546634074345,-0.016291108425954468,4.701187400506091,-3.139832737098657,919301.7647052532,472467.1206915417
453.80000000003463,26003.735974705767,33919.47008763621,-16.370122553392854,-1471.8965614479853,1.5595577720483278,-0.017968913591065932,4.7012676502116,-3.141709878163272,917960.3951984172,471125.75118470576
453.90000000003465,26002.10482132881,33772.70566778036,-16.311533769591236,-1467.6441985585125,1.557761032665737,-0.01796739382590761,4.701275345200808,-3.1435143125350713,916619.2492023235,469784.605188612
454.0000000000347,26000.467259766883,33626.3657769499,-16.37561561926669,-1463.398908304642,1.5561535677378338,-0.01607464927903154,4.7011993231657305,-3.1450457554278968,915278.327937675,468443.6839239636
454.1000000000347,25998.810419245612,33480.4476455721,-16.568405212714666,-1459.181313777941,1.5549302042643067,-0.012233634735269559,4.701034878550529,-3.1461046742862226,913937.6309161907,467102.9869024792
454.2000000000347,25997.119994978053,33334.94895031035,-16.904242675595526,-1454.9869526175798,1.5543022857847806,-0.0062791847952610325,4.7007713626996175,-3.146469076914837,912597.1570392376,465762.5130255261
454.30000000003474,25995.390973755646,33189.869479261855,-17.290212224083678,-1450.7947104849507,1.5543439614070333,0.0004167562225286716,4.70047179211792,-3.1461278307108866,911256.9050861126,464422.2610724011
454.40000000003477,25993.626731506352,33045.21034089185,-17.642422492939637,-1446.59138370009,1.555005462836609,0.0066150142957565675,4.700193727416444,-3.145188264579835,909916.8750568157,463082.2310431042
454.5000000000348,25991.839467209793,32900.97462402165,-17.872642965589044,-1442.3571687020324,1.5561084829042722,0.01103020067663078,4.69999834046976,-3.1438898575654877,908577.0680499797,461742.42403626826
454.6000000000348,25990.04203538063,32757.16624604296,-17.974318291623888,-1438.083779786878,1.5574633359878958,0.01354853083623557,4.6998908334410725,-3.142427497453177,907237.4861408,460402.8421270886
454.70000000003483,25988.245093098638,32613.787694315,-17.969422819905677,-1433.7855172796226,1.558910035883431,0.014466998955352165,4.699856783721687,-3.1409467478382562,905898.1315265422,459063.48751283076
454.80000000003486,25986.459417245558,32470.839697839623,-17.8567585307834,-1429.4799647537625,1.5602867463676957,0.013767104842649027,4.699897843579478,-3.1396110972117826,904559.0061603313,457724.3621466198
454.9000000000349,25984.6955213792,32328.320956180632,-17.638958663606296,-1425.1874165899076,1.561436408864806,0.011496624971102452,4.700013023443086,-3.13857661457828,903220.1107745891,456385.46676087764
455.0000000000349,25982.96210851394,32186.22947728896,-17.3341286525934,-1420.9147889167216,1.5622297041914635,0.007932953266574037,4.7001903116376,-3.1379606074461366,901881.4447589641,455046.80074525264
455.1000000000349,25981.2688975021,32044.563225660666,-16.932110118382447,-1416.6625162829705,1.5625265597069473,0.0029685551548391193,4.700437436721111,-3.1379108770141633,900543.0072589641,453708.36324525264
455.20000000003495,25979.61727026196,31903.322501460378,-16.516272401440407,-1412.4072420028772,1.5623071311083505,-0.0021942859859690597,4.700695809218893,-3.138388678110543,899204.7971759563,452370.1531622448
455.30000000003497,25978.000075058117,31762.510002692947,-16.17195203840405,-1408.1249876742945,1.5616736244051026,-0.0063350670324782195,4.700904743393521,-3.139231118988419,897866.8148761516,451032.17086244014
455.400000000035,25976.40905155675,31622.128743152698,-15.910235013663394,-1403.8125954024772,1.560745993607314,-0.009276307977885609,4.7010558765973585,-3.1403098829900444,896529.0625568157,449694.4185431042
455.500000000035,25974.83509785856,31482.181524823336,-15.739536981926955,-1399.4721832936038,1.559657227486934,-0.010887661203799658,4.701142687968095,-3.141485460481161,895191.5419269329,448356.8979132214
455.60000000003504,25973.26702487182,31342.669900398367,-15.680729867372913,-1395.1162442496895,1.558569197972989,-0.010880295139450488,4.701149723685817,-3.142580525712828,893854.2549396282,447019.6109259167
455.70000000003506,25971.696091334725,31203.59411928362,-15.709335370975152,-1390.757811147442,1.5576092210908388,-0.009599768821502486,4.701093938800618,-3.143484717709779,892517.2028156047,445682.55880189326
455.8000000000351,25970.1140162446,31064.953335912036,-15.820750901246866,-1386.4078337158635,1.5568964893571597,-0.0071273173367904525,4.70097815028634,-3.14408166092918,891180.3859210735,444345.741907362
455.9000000000351,25968.51485266275,30926.746717996666,-15.991635818516434,-1382.0661791536807,1.5565160077146705,-0.00380481642489325,4.700818679017605,-3.1443026713029343,889843.8041339641,443009.16012025264
456.00000000003513,25966.896211034677,30788.97419614268,-16.186416280727933,-1377.7252185398456,1.5565018713867522,-0.00014136327918286848,4.700640867348115,-3.144138995961363,888507.4570880657,441672.8130743542
456.10000000003515,25965.25931163177,30651.636778912398,-16.3689940290595,-1373.3741723028163,1.5568368332126454,0.003349618258933018,4.700470728746678,-3.143633895534033,887171.3447833782,440336.7007696667
456.2000000000352,25963.60865107037,30514.736334127687,-16.50660561396263,-1369.0044478471161,1.5574573114088386,0.0062047819619326355,4.700332185538311,-3.1428748741294728,885835.468562675,439000.8245489636
456.3000000000352,25961.951624166024,30378.27500301732,-16.570269043473996,-1364.6133111036772,1.5582591855853445,0.008018741765058181,4.700246745979462,-3.1419875603941176,884499.8292804485,437665.185266737
456.4000000000352,25960.29768314094,30242.25360631452,-16.53941025085682,-1360.2139670279912,1.5591098549329767,0.008506693476321487,4.700230161552643,-3.141120306619666,883164.4290118938,436329.7849981823
456.50000000003524,25958.654792757152,30106.6728367469,-16.428903837863903,-1355.807695676196,1.5598969615736504,0.007871066406736725,4.7002721441517075,-3.1403751825780573,881829.2680011516,434994.62398744014
456.60000000003527,25957.031352840364,29971.53283132733,-16.234399167866187,-1351.400054195674,1.5605033777474053,0.0060641617375487905,4.7003765357782905,-3.139873158030885,880494.3469806438,433659.7029669323
456.7000000000353,25955.432922223896,29836.83296640009,-15.984306164666284,-1346.998649272441,1.5608515281236022,0.0034815037619676976,4.700522928438389,-3.1396714003147865,879159.6666827922,432325.02266908076
456.8000000000353,25953.861808685273,29702.57330911244,-15.711135386240777,-1342.596572876509,1.560909215231852,0.0005768710824992358,4.700687462138699,-3.139778246906847,877825.2266193157,430990.5826056042
456.90000000003533,25952.317260029435,29568.754736186358,-15.445486558377446,-1338.1857292608133,1.5606869295992756,-0.002222856325764494,4.70084738313748,-3.140160453538205,876491.027156425,429656.3831427136
457.00000000003536,25950.795256697646,29435.378828262106,-15.220033317877677,-1333.7590792425335,1.5602401133983206,-0.004468162009549045,4.700978094447822,-3.1407379810495017,875157.0692706829,428322.4252569714
457.1000000000354,25949.289277699754,29302.447158552462,-15.059789978919868,-1329.3166970964362,1.5596582496844473,-0.005818637138731463,4.701060494271783,-3.1414022445873355,873823.3539386516,426988.70992494014
457.2000000000354,25947.790626366874,29169.960682454574,-14.986513328800301,-1324.8647609788975,1.5590595903790854,-0.005986593053619498,4.701077732159041,-3.142018141779955,872489.882625175,425655.2386114636
457.3000000000354,25946.293572219147,29037.919744366485,-14.970541477254413,-1320.409380880883,1.5585230718394931,-0.00536518539592349,4.701051663127744,-3.1425285912882512,871156.656062675,424322.0120489636
457.40000000003545,25944.791356955102,28906.325061700176,-15.022152640432651,-1315.9468266630986,1.5581401309041862,-0.0038294093530690755,4.700974005356857,-3.1428338744526707,869823.6744952922,422989.03048158076
457.50000000003547,25943.279992381067,28775.176829358345,-15.113645740358237,-1311.4823234183004,1.5579646357159704,-0.001754951882158995,4.700865396368972,-3.142900760653001,868490.9388995891,421656.29488587764
457.6000000000355,25941.758496417715,28644.475455537402,-15.214959633513502,-1307.0137382094238,1.5580099193192272,0.0004528360325663206,4.70074849645623,-3.1427385771370027,867158.449397636,420323.8053839245
457.7000000000355,25940.22866652564,28514.2220133621,-15.29829892074846,-1302.5344217529905,1.5582520455355213,0.002421262162942667,4.700644495725303,-3.1423924501897815,865826.206843925,418991.5628302136
457.80000000003554,25938.69501486018,28384.417333559926,-15.336516654608781,-1298.046798021767,1.558630993005649,0.003789474701276112,4.700574457904217,-3.141943464898568,864494.2118488079,417659.5678350964
457.90000000003556,25937.163902521992,28255.061800720276,-15.311123381862629,-1293.5553283964966,1.5590624398903157,0.004314468846666141,4.70055306732663,-3.141490627436314,863162.4651447063,416327.8211309948
458.0000000000356,25935.639197558532,28126.156652704,-15.247049634614218,-1289.0514801627367,1.5594941287605457,0.004316888702301207,4.700561416562568,-3.1410672878020223,861830.9674640422,414996.32345033076
458.1000000000356,25934.12768572553,27997.70220620305,-15.115118330016115,-1284.5444650095208,1.559836892765026,0.0034276400448023854,4.700622614030085,-3.1407857212650585,860499.7196613079,413665.0756475964
458.20000000003563,25932.633675582314,27869.698719492688,-14.9401014321463,-1280.0348671036195,1.5600341017668282,0.0019720900180231395,4.700717874029703,-3.1406837722628747,859168.7222247844,412334.07821107295
458.30000000003565,25931.158835066944,27742.14672249933,-14.748405153705752,-1275.5199699336017,1.5600638614764355,0.000297597096072604,4.700826834522036,-3.1407629730456,857837.9757648235,411003.331751112
458.4000000000357,25929.702116721197,27615.046884745123,-14.567183457465719,-1270.9983775420626,1.5599397651709677,-0.0012409630546780708,4.700928268931726,-3.1409885037607586,856507.4807697063,409672.8367559948
458.5000000000357,25928.26017623964,27488.400786736784,-14.419404815565033,-1266.460980083396,1.5597053243015404,-0.0023444086942721832,4.701003882840926,-3.1412985585393853,855177.2378497844,408342.59383607295
458.6000000000357,25926.827945792647,27362.208204407485,-14.322304469933698,-1261.925823292978,1.5594258513593997,-0.0027947294214073493,4.701039906382907,-3.141614055023507,853847.248225761,407012.6042120495
458.70000000003574,25925.4035351483,27236.470477949206,-14.24410644348049,-1257.3772645828035,1.5591271431035876,-0.002987082558121054,4.701061038039345,-3.1419338949357574,852517.5122638469,405682.86825013545
458.80000000003577,25923.98096809275,27111.187388428272,-14.225670555497183,-1252.8308952093398,1.5588855467962868,-0.002415963073007019,4.701034647349012,-3.142149100552725,851188.0308185344,404353.38680482295
458.9000000000358,25922.55648058373,26986.36044128356,-14.244875090180848,-1248.269471447129,1.5587493800678303,-0.0013616672845660584,4.700977777027431,-3.1422283969596005,849858.8038898235,403024.159876112
459.0000000000358,25921.128605185626,26861.9904344807,-14.278753981034495,-1243.7000680286046,1.5587374743571096,-0.00011905710720637821,4.700908618651609,-3.1421711442944993,848529.8329425579,401695.1889288464
459.10000000003583,25919.698221418574,26738.078110629758,-14.303837670532175,-1239.1232385094088,1.5588387982171361,0.001013238600264052,4.700845978094874,-3.1420071798777376,847201.1187091594,400366.47469544795
