time[s],x[m],y[m],vx[m/s],vy[m/s],theta[rad],theta_dot[rad/s],gamma[rad],alpha[rad],mass[kg],mass_propellant[kg]
0.1,-0.0002226535648101291,0.06394300602754255,-0.002226535648101291,0.6394300602754255,1.5707921539385032,-4.1728563934066624e-05,1.5742783755563667,-0.003486221617863494,6939072.482247612,4178687.0016154693
0.2,-0.000675066698943991,0.1919055789083624,-0.004524131341338619,1.2796257288081985,1.5707836638940424,-8.49004446072343e-05,1.5743318234556167,-0.0035481595615742823,6935794.6373996595,4175409.156767517
0.30000000000000004,-0.0013564880221563261,0.38396443795429597,-0.0068142132321233504,1.9205885904593356,1.5707708464633194,-0.00012817430722915577,1.5743442936386831,-0.0035734471753636754,6932516.792577472,4172131.3119453285
0.4,-0.0022655798697759737,0.6401964334289321,-0.009090918476196476,2.56231995474636,1.5707536892637504,-0.00017157199568972352,1.574344236693833,-0.00359054743008258,6929238.947786929,4168853.4671547865
0.5,-0.003400287428966028,0.9606785472623461,-0.011347075591900544,3.2048211383341405,1.5707321801234213,-0.00021509140329016295,1.5743369387937194,-0.0036047586702980805,6925961.103027541,4165575.6223953986
0.6,-0.004757840414083823,1.3454878932411694,-0.013575529851177947,3.8480934597882324,1.5707063069936729,-0.00025873129748513283,1.5743241708231346,-0.0036178638294617205,6922683.258299046,4162297.777666904
0.7,-0.006334751802080979,1.794701717199342,-0.015769113879971562,4.4921382395817275,1.5706760579170307,-0.00030249076642265433,1.5743066927423308,-0.0036306348253001275,6919405.413601267,4159019.932969125
0.7999999999999999,-0.008126817963420558,2.308397397192734,-0.017920661613395793,5.13695679993392,1.570641420969235,-0.00034636947795791355,1.5742848881382696,-0.003643467169034631,6916127.56893418,4155742.088302038
0.8999999999999999,-0.010129117328747689,2.88665244366857,-0.020022993653271304,5.782550464758359,1.5706023842286831,-0.00039036740551759945,1.5742589707874826,-0.003656586558799413,6912849.724297844,4152464.243665702
0.9999999999999999,-0.012336007610567966,3.5295444996293703,-0.02206890281820277,6.428920559608003,1.5705589357727856,-0.0004344845589752633,1.5742290673193777,-0.003670131546592126,6909571.879692327,4149186.3990601855
1.0999999999999999,-0.014741123101141583,4.237151340785427,-0.024051154905736172,7.0760684115605645,1.5705110636727646,-0.00047872100020909385,1.5741952569476307,-0.003684193274866132,6906294.035117713,4145908.5544855706
1.2,-0.01733737057542515,5.009550875701147,-0.025962474742835678,7.7239953491572,1.5704587560143501,-0.000523076584144867,1.5741575894308415,-0.003698833416491354,6903016.190574026,4142630.7099418836
1.3,-0.020116929295273634,5.846821145914767,-0.027795587198484847,8.372702702136191,1.5704020008418154,-0.0005675517253485047,1.5741161013141203,-0.0037141004723049154,6899738.346061445,4139352.8654293027
1.4000000000000001,-0.023071244340130293,6.749040326071051,-0.029543150448566577,9.022191801562839,1.5703407862263288,-0.0006121461548667772,1.5740708132510124,-0.003730027024683613,6896460.501579962,4136075.0209478196
1.5000000000000002,-0.026191027540918902,7.716286724014555,-0.031197832007886096,9.672463979435046,1.5702751001923625,-0.0006568603396630192,1.5740217431817891,-0.0037466429894266184,6893182.657129769,4132797.1764976275
1.6000000000000003,-0.0294662509287738,8.748638780898018,-0.032752233878548996,10.32352056883462,1.5702049307834678,-0.0007016940889467765,1.5739688999276706,-0.00376396914420285,6889904.812710881,4129519.3320787395
1.7000000000000004,-0.032886147097928725,9.846175071254196,-0.034198961691549234,10.975362903561773,1.570130265999027,-0.0007466478444066416,1.5739122921903006,-0.0037820261912735464,6886626.968323484,4126241.4876913424
1.8000000000000005,-0.03643919614872513,11.008974303101722,-0.03553049050796404,11.62799231847525,1.5700510939808254,-0.0007917201820168699,1.5738519170426708,-0.003800823061845371,6883349.123967249,4122963.6433351077
1.9000000000000006,-0.04011303462269816,12.237115318294688,-0.03673838473973034,12.281410151929661,1.5699674046523622,-0.000836893284631877,1.573787699503977,-0.003820294851614836,6880071.2796373,4119685.7990051596
2.0000000000000004,-0.043894498715857856,13.530677092401456,-0.03781464093159691,12.935617741067679,1.5698791888614025,-0.0008821579095968216,1.5737196145707153,-0.003840425709312756,6876793.435331115,4116407.9546989733
2.1000000000000005,-0.04776952744864538,14.889738735024464,-0.0387502873278752,13.590616426230072,1.5697864401325465,-0.0009274872885593889,1.5736475721765937,-0.003861132044047144,6873515.59104128,4113130.1104091383
2.2000000000000006,-0.0517232821771733,16.31437948941374,-0.03953754728527923,14.24640754389273,1.569689152400791,-0.000972877317554994,1.5735715840417959,-0.00388243164100488,6870237.746766664,4109852.2661345224
2.3000000000000007,-0.05573995319292757,17.80467873303612,-0.04016671015754269,14.902992436223805,1.5695873235683997,-0.0010182883239140056,1.5734915313365807,-0.0039042077681810117,6866959.902496228,4106574.4218640868
2.400000000000001,-0.0598029700100767,19.360715976903823,-0.04063016817149128,15.560372438677028,1.5694809515643269,-0.0010637200407275958,1.5734074516887966,-0.003926500124469712,6863682.058229892,4103296.5775977504
2.500000000000001,-0.0638949989789873,20.98257086555583,-0.04092028968910605,16.218548886520043,1.5693700343613395,-0.0011091720298750083,1.5733193763689086,-0.003949342007569134,6860404.213967525,4100018.7333353846
2.600000000000001,-0.06799794025829009,22.670323177028255,-0.04102941279302784,16.87752311472427,1.5692545700050806,-0.0011546435625876168,1.5732273311365372,-0.003972761131456615,6857126.36970892,4096740.8890767796
2.700000000000001,-0.07209292780979132,24.424052822803997,-0.04094987551501232,17.537296457757428,1.5691345565871018,-0.0012001341797876063,1.5731313389896326,-0.003996782402530874,6853848.525453941,4093463.0448218007
2.800000000000001,-0.07616032830893135,26.243839847753108,-0.04067400499140031,18.19787024949111,1.569009992238121,-0.0012456434898060304,1.5730314200614615,-0.004021427823340362,6850570.681202472,4090185.2005703314
2.9000000000000012,-0.08017968830504155,28.129764430179694,-0.04019359996110196,18.85924582426587,1.5688808760816337,-0.0012911615648740265,1.5729275646757834,-0.004046688594149694,6847292.83695174,4086907.3563196
3.0000000000000013,-0.0841296937825684,30.081906881805185,-0.03950005477526861,19.5214245162549,1.5687472089590728,-0.0013366712256085295,1.5728197447496188,-0.004072535790546006,6844014.992696955,4083629.5120648146
3.1000000000000014,-0.08798826044126895,32.10034764745341,-0.038585666587005456,20.184407656482257,1.5686089917351413,-0.0013821722393145244,1.5727079815851133,-0.0040989898499719235,6840737.148438047,4080351.667805906
3.2000000000000015,-0.09173253021889564,34.185167304945864,-0.0374426977762669,20.8481965749245,1.5684662253435122,-0.001427663916290303,1.5725922930495615,-0.004126067706049286,6837459.304174818,4077073.823542678
3.3000000000000016,-0.0953388577823516,36.33644656500073,-0.03606327563455958,21.51279260054866,1.5683189110184954,-0.0014731432501689221,1.5724726894374697,-0.004153778418974241,6834181.45990643,4073795.979274289
3.4000000000000017,-0.09878272718427707,38.55426627122419,-0.034438694019254666,22.178197062234627,1.5681670518208033,-0.0015185919769201126,1.572349143114575,-0.004182091293771784,6830903.615627804,4070518.1349956635
3.5000000000000018,-0.10203884603226655,40.83870739978641,-0.03256118847989489,22.84441128562215,1.5680106508796787,-0.0015640094112467084,1.5722216717522368,-0.004211020872558091,6827625.771338754,4067240.290706614
3.600000000000002,-0.1050811439348086,43.18985105926198,-0.030422979025420457,23.51143659475576,1.567849711409542,-0.0016093947013671628,1.572090291199126,-0.00424057978958392,6824347.92703905,4063962.446406909
3.700000000000002,-0.1078825201305048,45.60777849073726,-0.028013761956962098,24.17927431475276,1.567684241367843,-0.0016547004169902894,1.5719549119971579,-0.0042706706293149654,6821070.082715566,4060684.602083425
3.800000000000002,-0.1104148992214402,48.09257106745553,-0.025323790909353994,24.847925767182677,1.5675142524216825,-0.0016998894616048802,1.5718154775432913,-0.004301225121608798,6817792.238358111,4057406.75772597
3.900000000000002,-0.11264942774092172,50.64431029437585,-0.022345285194815295,25.51739226920321,1.5673397563231177,-0.0017449609856488675,1.571672015001881,-0.004332258678763301,6814514.393966545,4054128.913334404
4.000000000000002,-0.11455647657101496,53.26307780796213,-0.019070488300932366,26.187675135862786,1.5671607648785284,-0.0017899144458938746,1.5715245504661812,-0.004363785587652824,6811236.549540816,4050851.0689086746
4.100000000000001,-0.11610563836344923,55.94895537596411,-0.01549161792434269,26.858775680019825,1.5669772900105197,-0.001834748680088353,1.571373107225658,-0.004395817215138376,6807958.705080701,4047573.22444856
4.200000000000001,-0.11726573105464824,58.70202489718382,-0.011600926911990099,27.530695212197045,1.5667893437075315,-0.0018794630298822185,1.571217708315993,-0.004428364608461521,6804680.86058612,4044295.379953979
4.300000000000001,-0.11800479770720457,61.522368401232896,-0.00739066652556329,28.203435040490763,1.5665969380415543,-0.0019240566597718393,1.5710583752420373,-0.004461437200482976,6801403.016056945,4041017.5354248043
4.4,-0.11829010788540018,64.41006804827869,-0.002853101781956034,28.87699647045788,1.5664000851577646,-0.001968528837897416,1.5708951286829527,-0.004495043525188036,6798125.171493079,4037739.6908609383
4.5,-0.11808815746525796,67.36520612877918,0.0020195042014221854,29.551380805004914,1.5661987972932885,-0.002012878644761751,1.5707279880525684,-0.004529190759279933,6794847.326894375,4034461.8462622343
4.6,-0.11736467161775756,70.38786506320842,0.007234858475003945,30.2265893442925,1.5659930867376997,-0.0020571055558879815,1.570556972686683,-0.004563885948983382,6791569.482260795,4031184.001628655
4.699999999999999,-0.11608455589985334,73.47812740172846,0.012801157179042164,30.9026233852003,1.5657829667505068,-0.002101199871929815,1.5703820850560233,-0.004599118305516514,6788291.63758984,4027906.1569577
4.799999999999999,-0.11421182588905479,76.6360758237865,0.0187273001079855,31.57948422058046,1.5655684528757616,-0.0021451387474510663,1.5702033057758744,-0.004634852900112785,6785013.792875519,4024628.3122433787
4.899999999999999,-0.11170972765049354,79.86179313789125,0.025020982385612497,32.25717314104758,1.5653495607458203,-0.0021889212994130845,1.5700206550626556,-0.0046710943168353225,6781735.948117761,4021350.46748562
4.999999999999998,-0.10854063576862824,83.15536228113636,0.03169091881865302,32.935691432451044,1.565126307985297,-0.002232527605233082,1.5698341211249955,-0.00470781313969848,6778458.103311446,4018072.622679305
5.099999999999998,-0.10466604689744419,86.51686631879335,0.03874588871184058,33.61504037656983,1.5648987143598099,-0.002275936254872445,1.5696436918101115,-0.004744977450301668,6775180.258451129,4014794.7778189885
5.1999999999999975,-0.10004669607347796,89.94638844413602,0.046193508239662284,34.29522125342672,1.5646667996717054,-0.0023191468810437594,1.569449390440033,-0.004782590768327655,6771902.413536977,4011516.9329048363
5.299999999999997,-0.09464255680022506,93.44401197809455,0.05404139273252903,34.97623533958529,1.5644305837973291,-0.0023621587437638496,1.5692512391317,-0.004820655334370816,6768624.568569058,4008239.087936917
5.399999999999997,-0.0884128428999824,97.00982036890338,0.062297139002426526,35.6580839080883,1.5641900866920182,-0.0024049710531095824,1.5690492594039243,-0.004859172711906057,6765346.72354743,4004961.242915289
5.4999999999999964,-0.08131601177002647,100.64389719174417,0.07096831129955938,36.340768228408024,1.5639453283695703,-0.002447583224477576,1.5688434726164258,-0.004898144246855418,6762068.878472209,4001683.3978400677
5.599999999999996,-0.07330976544246437,104.34632614837466,0.080062463275621,37.0242895663048,1.5636963289223436,-0.0024899944722678643,1.568633899387909,-0.004937570465565422,6758791.0333434595,3998405.5527113182
5.699999999999996,-0.06435087724268106,108.11719106616711,0.08958888199783316,37.70864917792454,1.5634431117456524,-0.002532171766911447,1.568420513410177,-0.004977401664524539,6755513.18815299,3995127.7075208495
5.799999999999995,-0.0543953006595092,111.95657589797887,0.0995557658317186,38.393848318117556,1.5631857015849062,-0.0025741016074618565,1.5682033191370184,-0.0050176175521121635,6752235.342897727,3991849.862265587
5.899999999999995,-0.043398242227508786,115.86456472198294,0.10997058432000409,39.079888240040816,1.5629241232504327,-0.002615783344734482,1.5679823398823394,-0.005058216631906642,6748957.497577909,3988572.0169457686
5.999999999999995,-0.0313141653733303,119.84124174127643,0.1208407685417848,39.76677019293495,1.5626584016013636,-0.0026572164906911366,1.567757598831506,-0.005099197230142405,6745679.652193818,3985294.1715616775
6.099999999999994,-0.018096791917772522,123.88669128347253,0.1321737345555778,40.45449542196099,1.5623885615727908,-0.0026984002857267627,1.5675291184692504,-0.005140556896459536,6742401.806745671,3982016.3261135304
6.199999999999994,-0.003699034058874605,128.00099779995386,0.14397757858897917,41.143065164813216,1.5621146294780923,-0.0027393209469856947,1.5672969037378854,-0.005182274259793118,6739123.961230456,3978738.480598316
6.299999999999994,0.011927010159315918,132.18424586536207,0.1562604421819052,41.832480654082104,1.5618366331498836,-0.002779963282086096,1.5670609586557862,-0.005224325505902572,6735846.115644885,3975460.635012745
6.399999999999993,0.028829975559269472,136.43652017753195,0.1690296539995355,42.522743121698795,1.5615546005128582,-0.0028203263702550837,1.5668213065745942,-0.0052667060617359596,6732568.269989238,3972182.7893570974
6.499999999999993,0.047059265668219885,140.75790555684407,0.18229290108950413,43.21385379312124,1.5612685603046752,-0.0028604020818310933,1.5665779615298092,-0.005309401225134014,6729290.42426205,3968904.9436299084
6.5999999999999925,0.06666505010872087,145.1484869457568,0.1960578444050098,43.90581388912717,1.560978542094356,-0.002900182103190674,1.5663309377284995,-0.00535239563414347,6726012.578461854,3965627.0978297126
6.699999999999992,0.0876982221003913,149.60834940858294,0.21033171991670424,44.59862462826159,1.560684575573129,-0.0029396652122719354,1.5660802584785032,-0.005395682905374288,6722734.732588926,3962349.251956785
6.799999999999992,0.11021045688102188,154.13757813063984,0.22512234780630577,45.29228722056911,1.5603866916935258,-0.0029788387960302015,1.5658259332080486,-0.005439241514522797,6719456.886640849,3959071.4060087074
6.8999999999999915,0.134254181517199,158.7362584179355,0.2404372463617712,45.986802872956545,1.5600849221899304,-0.003017695035954283,1.5655679777794802,-0.005483055589549757,6716179.040616402,3955793.559984261
6.999999999999991,0.15988255387491496,163.40447569681584,0.25628372357715956,46.68217278880337,1.5597792992698427,-0.0030562292008769207,1.5653064120472322,-0.005527112777389487,6712901.194515135,3952515.7138829944
7.099999999999991,0.18714943802590708,168.14231551365637,0.2726688415099212,47.378398168405255,1.5594698552420272,-0.0030944402781552726,1.5650412603150579,-0.005571405073030666,6709623.348337482,3949237.867705341
7.19999999999999,0.21610940098305764,172.94986353440646,0.2895996295715057,48.075480207500824,1.5591566225353926,-0.0031323270663457295,1.5647725465743771,-0.005615924038984588,6706345.50208384,3945960.0214516986
7.29999999999999,0.24681770953835663,177.82720554412867,0.30708308555298985,48.77342009722214,1.5588396337202348,-0.0031698881515763843,1.564500294502376,-0.005660660782141225,6703067.655754565,3942682.1751224236
7.39999999999999,0.2793304086501711,182.77442744582953,0.3251269911181451,49.47221901700842,1.5585189230191028,-0.003207107011319808,1.5642245109969828,-0.005705587977880011,6699789.809346625,3939404.3287144834
7.499999999999989,0.313704384827663,187.79161525931542,0.343739761774919,50.17187813485897,1.5581945275468694,-0.003243954722333987,1.5639451903340744,-0.005750662787205041,6696511.962854333,3936126.482222192
7.599999999999989,0.3499972100224483,192.87885512200972,0.3629282519478531,50.87239862694307,1.5578664845530572,-0.0032804299381214708,1.5636623581827416,-0.005795873629684367,6693234.116278273,3932848.6356461323
7.699999999999989,0.3882671331973029,198.036233288535,0.3826992317485457,51.57378166525254,1.5575348313623483,-0.003316531907089356,1.5633760408380124,-0.005841209475664133,6689956.269619166,3929570.788987025
7.799999999999988,0.428573077155657,203.26383613024618,0.40305943958354135,52.2760284171118,1.5571996054115154,-0.0033522595083298103,1.5630862641691685,-0.0058866587576531515,6686678.422877657,3926292.942245517
7.899999999999988,0.47097463190372524,208.56175013479736,0.4240155474806825,52.97914004551183,1.5568608442236296,-0.0033876118788575237,1.562793054299141,-0.005932210075511479,6683400.576054457,3923015.095422316
7.999999999999988,0.5155320507691379,213.93006190568067,0.44557418865412646,53.683117708833116,1.5565185854329815,-0.003422587906481166,1.5624964370711467,-0.005977851638165221,6680122.7291502245,3919737.2485180837
8.099999999999987,0.5623063464017828,219.36885816064515,0.46774295632644924,54.387962549644605,1.5561728686297407,-0.0034571680324075723,1.5621964196983809,-0.006023551068640165,6676844.882161786,3916459.4015296446
8.199999999999987,0.6113592104709311,224.8782257320162,0.49052864069148305,55.09367571371069,1.5558237339981442,-0.0034913463159643118,1.5618930239554545,-0.006069289957310264,6673567.035088911,3913181.554456769
8.299999999999986,0.6627529812195669,230.45825156654982,0.5139377074863581,55.80025834533624,1.5554712218297004,-0.0035251216844372057,1.5615862766795194,-0.006115054849819002,6670289.187932403,3909903.7073002616
8.399999999999986,0.7165506397680489,236.1090227249714,0.5379765854848195,56.507711584215784,1.5551153725607008,-0.0035584926899965394,1.5612762043630677,-0.006160831802366928,6667011.340692999,3906625.860060858
8.499999999999986,0.7728158842426601,241.83062638052172,0.5626524447461126,57.21603655550329,1.5547562282257938,-0.0035914433490695794,1.560962819569695,-0.006206591343901113,6663733.493368563,3903348.0127364225
8.599999999999985,0.8316130626783219,247.62314981924584,0.5879717843566176,57.92523438724123,1.5543938313469392,-0.003623968788546452,1.5606461461650238,-0.006252314818084637,6660455.645959256,3900070.1653271155
8.699999999999985,0.8930071677648771,253.48668043953717,0.6139410508655517,58.63530620291319,1.5540282249496598,-0.0036560639727945647,1.5603262080838562,-0.006297983134196494,6657177.798465245,3896792.317833104
8.799999999999985,0.9570638084112718,259.42130575200747,0.6405664064639468,59.346253124702905,1.5536594521598666,-0.003687727897931598,1.5600030332296917,-0.006343581069825133,6653899.950887504,3893514.4702553623
8.899999999999984,1.0238492040008538,265.4271133790684,0.6678539558958199,60.05807627060911,1.5532875562139083,-0.003718959459581472,1.5596766494585144,-0.0063890932446060145,6650622.103226994,3890236.6225948525
8.999999999999984,1.0934301990436297,271.5041910542152,0.695809950427759,60.77077675146822,1.5529125808394888,-0.00374975374419489,1.5593470812218184,-0.006434500382329622,6647344.255483981,3886958.7748518395
9.099999999999984,1.1658743292461324,277.6526266205025,0.7244413020250278,61.48435566287291,1.552534571570947,-0.0037800926854171073,1.5590143413978803,-0.006479769826933213,6644066.407656373,3883680.9270242318
9.199999999999983,1.2412497249222272,283.87250803145247,0.7537539567609474,62.19881410949981,1.552153574117461,-0.003809974534861555,1.5586784581062691,-0.006524883988808128,6640788.559745155,3880403.079113013
9.299999999999983,1.3196251039423719,290.1639233506735,0.7837537902014461,62.91415319221019,1.55176963435821,-0.003839397592511384,1.558339459607885,-0.0065698252496750875,6637510.7117513325,3877125.231119191
