time[s],x[m],y[m],vx[m/s],vy[m/s],theta[rad],theta_dot[rad/s],gamma[rad],alpha[rad],mass[kg],mass_propellant[kg]
0.1,-0.0002222917781669161,0.06394300738549087,-0.002222917781669161,0.6394300738549087,1.5707921607189188,-4.16607597779343e-05,1.5742727175961455,-0.0034805568772267037,6939072.48223019,4178687.001598046
0.2,-0.0006737679175324181,0.19190558385785944,-0.00451476139365502,1.2796257647236855,1.5707836882519148,-8.472467004024976e-05,1.5743245010352334,-0.0035408127833185254,6935794.637353553,4175409.1567214094
0.30000000000000004,-0.0013539267217425586,0.38396444777125116,-0.006801588042101404,1.9205886391339169,1.5707708945691325,-0.0001279368278226277,1.5743377200269126,-0.0035668254577800873,6932516.792514929,4172131.3118827846
0.4,-0.0022614844736527162,0.640196449191833,-0.009075577519101576,2.5623200142058185,1.5707537663479947,-0.0001712822113795023,1.5743382495512495,-0.0035844832032547735,6929238.947710415,4168853.467078272
0.5,-0.003394431695491057,0.9606785698874654,-0.011329472218383409,3.204821206956323,1.5707322906543957,-0.00021475693599115123,1.5743314460080033,-0.0035991553536076637,6925961.102939061,4165575.6223069173
0.6,-0.004750044011633192,1.3454879234823944,-0.01355612316142135,3.8480935359492903,1.5707064546809237,-0.0002583597347191826,1.574319127620033,-0.003612672939109274,6922683.258200605,4162297.7775684623
0.7,-0.006324881979473742,1.7947017556439944,-0.015748379678405495,4.4921383216159985,1.5706762456920154,-0.0003020898890827168,1.574302077070932,-0.0036258313789165886,6919405.413494934,4159019.9328627917
0.7999999999999999,-0.008114791317839218,2.3083974442572663,-0.017899093383654762,5.136956886132719,1.5706416509618346,-0.0003459473018073687,1.574280689491336,-0.003639038529501315,6916127.568822099,4155742.0881899563
0.8999999999999999,-0.01011490130735331,2.8866524995955474,-0.020001099895140914,5.782550553382811,1.5706026577462946,-0.0003899321553995495,1.574255184603067,-0.00365252685677242,6912849.724182226,4152464.2435500827
0.9999999999999999,-0.012319619746157234,3.529544564493273,-0.02204718438803924,6.428920648977254,1.5705592533192783,-0.0004340442701634173,1.5742256890724748,-0.003666435753196584,6909571.879575342,4149186.3989431993
1.0999999999999999,-0.014722631530290504,4.237151414493769,-0.024030117841332698,7.076068500004962,1.5705114249410301,-0.0004782837824809477,1.5741922839517934,-0.0036808590107633155,6906294.035001562,4145908.55436942
1.2,-0.0173168967004624,5.009550957987871,-0.02594265170171896,7.723995434941024,1.5704591598363744,-0.0005226510465575936,1.5741550229992798,-0.0036958631629053773,6903016.190461059,4142630.7098289174
1.3,-0.02009464553539278,5.846821236352043,-0.027777488349303787,8.372702783641715,1.5704024452278327,-0.0005671460854162347,1.5741139396560642,-0.0037114944282314877,6899738.345953917,4139352.8653217754
1.4000000000000001,-0.023047377022014256,6.749040424062394,-0.029527314866214766,9.022191877103511,1.5703412683055509,-0.0006117692228177985,1.5740690580611183,-0.0037277897555674233,6896460.501480301,4136075.020848159
1.5000000000000002,-0.026165855176475964,7.716286828804877,-0.031184781544617082,9.672464047424835,1.570275616237108,-0.0006565206844276597,1.5740203939344009,-0.003744777697292756,6893182.65704035,4132797.1764082084
1.6000000000000003,-0.029440105853243588,8.748638891571776,-0.03274250676767623,10.323520627668993,1.5702054761680029,-0.0007014006910514742,1.5739679576910053,-0.0037624815230024033,6889904.812634203,4129519.332002061
1.7000000000000004,-0.03285937210307592,9.846175186889257,-0.03419266249832336,10.975362953174798,1.5701308359944044,-0.0007464017359846104,1.573911718242387,-0.0037808822479825643,6886626.968259862,4126241.48762772
1.8000000000000005,-0.036412039458863475,11.008974423125105,-0.03552667355787552,11.62799236235849,1.5700516856971691,-0.0007915029723520618,1.5738515887789066,-0.003799903081737499,6883349.123911623,4122963.643279481
1.9000000000000006,-0.040085712915169436,12.23711544226255,-0.0367367345630596,12.281410191374441,1.569968015855241,-0.0008366984192820723,1.5737875651317939,-0.003819549276552925,6880071.279587869,4119685.7989557274
2.0000000000000004,-0.043867236052771374,13.530677219868886,-0.037815231376019366,12.935617776063376,1.569879817239877,-0.0008819861536397989,1.5737196602072736,-0.0038398429673967005,6876793.4352881005,4116407.954655959
2.1000000000000005,-0.04774257340899435,14.88973886548931,-0.03875337356222978,13.590616456204243,1.5697870829548213,-0.0009273428505567462,1.5736477992541371,-0.003860716299315836,6873515.591005861,4113130.1103737196
2.2000000000000006,-0.05169675478066341,16.314379622801734,-0.03954181371669063,14.246407573124237,1.5696898094283003,-0.0009727352652101524,1.5735718835079877,-0.0038820740796874365,6870237.746731909,4109852.2660997678
2.3000000000000007,-0.0557139839714614,17.804678869249603,-0.04017229190797984,14.902992464478688,1.5695879943555848,-0.0010181507271538447,1.573491905867652,-0.0039039115120671486,6866959.902462713,4106574.421830572
2.400000000000001,-0.059777704366527136,19.360716115823273,-0.04063720395065736,15.5603724657367,1.569481635450801,-0.0010635890478380074,1.5734079038412465,-0.00392626839044552,6863682.058198215,4103296.577566074
2.500000000000001,-0.0638705975443415,20.98257100703878,-0.04092893177814374,16.218548912155057,1.5693707304448505,-0.0011090500595041012,1.5733199092137014,-0.003949178768850814,6860404.213938362,4100018.7333062207
2.600000000000001,-0.06797458076980573,22.67032332090725,-0.04103983225464224,16.877523138684726,1.5692552771040869,-0.0011545334076366472,1.5732279484867069,-0.00397267138262003,6857126.369683048,4096740.8890509065
2.700000000000001,-0.07207080624741859,24.424052968887022,-0.040962254776128616,17.537296479797718,1.5691352732163049,-0.0012000388778199056,1.5731320448648027,-0.003996771648497877,6853848.525432206,4093463.044800065
2.800000000000001,-0.07613961516221153,26.243839995933108,-0.040688089147929415,18.19787027046086,1.5690107174160137,-0.001245558002912249,1.573032194000338,-0.0040214765843242795,6850570.681183471,4090185.20055133
2.9000000000000012,-0.08016051023156046,28.12976458047153,-0.040208950693489245,18.859245845384223,1.5688816096675355,-0.0012910774847812142,1.5729283786329136,-0.004046768965378034,6847292.836933131,4086907.35630099
3.0000000000000013,-0.0841122242520894,30.08190703413999,-0.039517140205289486,19.521424536684627,1.5687479499706936,-0.0013365969684199712,1.5728206199582222,-0.004072669987528643,6844014.992681081,4083629.5120489397
3.1000000000000014,-0.08797271866811325,32.100347801691534,-0.03860494416023844,20.18440767551543,1.5686097383660085,-0.0013821160468517912,1.572708936652345,-0.004099198286336536,6840737.1484272005,4080351.6677950593
3.2000000000000015,-0.09171918250669879,34.18516746088485,-0.03746463838585534,20.848196591933164,1.5684669749331468,-0.0014276343286158501,1.5725933454431407,-0.004126370509993871,6837459.304171374,4077073.8235392333
3.3000000000000016,-0.09532803111940548,36.336446722362446,-0.03608848612706689,21.512792614775943,1.5683196597930047,-0.0014731514014205518,1.5724738613168352,-0.004154201523830503,6834181.459913481,4073795.9792813407
3.4000000000000017,-0.09877481305683007,38.55426642966338,-0.03446781937424597,22.178197073009326,1.5681677948115413,-0.0015186498146331211,1.5723504563533328,-0.004182661541791477,6830903.615648663,4070518.1350165224
3.5000000000000018,-0.10203392645314478,40.83870755944622,-0.03259113396314705,22.844411297828415,1.5680113888337106,-0.0015640597783078416,1.57222298259385,-0.004211593760139465,6827625.771357541,4067240.2907254
3.600000000000002,-0.1050789546008016,43.18985122073576,-0.030450281476568274,23.51143661289539,1.5678504514698048,-0.0016093736390567577,1.5720914524374787,-0.00424100096767388,6824347.927038051,4063962.446405911
3.700000000000002,-0.10788270545461251,45.60777865468845,-0.02803750853810905,24.179274339526923,1.5676849923713487,-0.0016545909845609946,1.5719558940994414,-0.004270901728092635,6821070.082690145,4060684.602058005
3.800000000000002,-0.11041721050410547,48.09257123440879,-0.025345050494929522,24.847925797203352,1.5675150212597038,-0.0016997111164502915,1.5718163331291077,-0.004301311869403968,6817792.238313695,4057406.7576815556
3.900000000000002,-0.11265372584657014,50.64431046475155,-0.02236515342464671,25.517392303427606,1.5673405479141436,-0.0017447334556028311,1.5716727936153214,-0.00433224570117785,6814514.393908609,4054128.913276469
4.000000000000002,-0.11456273239848254,53.263077982113586,-0.01909006551912394,26.187675173620356,1.5671615821760387,-0.0017896573810473248,1.5715252980384713,-0.00436371586243256,6811236.549474781,4050851.068842642
4.100000000000001,-0.11611393605995801,55.948955554214095,-0.015512036614754792,26.85877572100505,1.5669781339540845,-0.0018344822195419759,1.5713738674486921,-0.004395733494607645,6807958.705012098,4047573.224379958
4.200000000000001,-0.11727626921257095,58.70202507986313,-0.011623331526129311,27.53069525649029,1.5667902132050884,-0.0018792074899616033,1.57121852212005,-0.004428308914961709,6804680.860520495,4044295.379888355
4.300000000000001,-0.11801789104368839,61.52236858871958,-0.00741621831117435,28.20343508856455,1.5665978299365921,-0.001923832684962584,1.5710592812228574,-0.004461451286265294,6801403.015999904,4041017.535367763
4.4,-0.1183061037533109,64.41006824101991,-0.002882127096225067,28.87699652300335,1.5664009957622247,-0.001968341743674461,1.5708961338189533,-0.004495138056728631,6798125.171446037,4037739.6908138962
4.5,-0.11810736137178615,67.36520632727037,0.0019874238152474515,29.551380862504587,1.5661997237509895,-0.0020127201123523804,1.5707290736326334,-0.004529349881643885,6794847.326855052,4034461.846222912
4.6,-0.11738728478714944,70.38786526793744,0.007200765846367145,30.226589406670648,1.5659940281666824,-0.0020569558430697924,1.5705581005890463,-0.004564072422363896,6791569.482223849,4031184.0015917085
4.699999999999999,-0.1161107187436344,73.47812761317398,0.012765660435150303,30.90262345236533,1.5657839234374984,-0.0021010472918412673,1.570383233721142,-0.004599310283643687,6788291.637552124,4027906.1569199837
4.799999999999999,-0.11424168378974242,76.6360760424667,0.01869034953891986,31.579484292927184,1.5655694250638093,-0.0021449837368903366,1.5702044758582816,-0.004635050794472351,6785013.792837153,4024628.3122050124
4.899999999999999,-0.11174331514068023,79.8617933642146,0.024983686490622,32.25717321747907,1.565350550769038,-0.002188742947713336,1.5700218112684898,-0.004671260499451879,6781735.948073178,4021350.467441037
4.999999999999998,-0.10857798088761692,83.15536251552014,0.03165334253063318,32.93569151305536,1.565127318352542,-0.002232324164958621,1.5698352620250071,-0.004707943672465076,6778458.103260209,4018072.622628068
5.099999999999998,-0.10470726340306728,86.5168665618278,0.03870717484549626,33.61504046307657,1.5648997460645584,-0.0022757228798356037,1.5696448434944212,-0.0047450974298628434,6775180.25839727,4014794.777765129
5.1999999999999975,-0.10009194676717235,89.94638869654727,0.04615316635894929,34.29522134719473,1.5646678528712206,-0.002318931933378523,1.5694505667535923,-0.004782713882371725,6771902.413482704,4011516.932850564
5.299999999999997,-0.09469205571154607,93.44401224077158,0.05399891055626292,34.976235442243066,1.5644316577736148,-0.0023619509760577557,1.5692524537345012,-0.004820795960886359,6768624.568516662,4008239.0878845216
5.399999999999997,-0.08846685517629438,97.00982064292057,0.062252005352516834,35.65808402148985,1.564191179852346,-0.002404779212687146,1.5690505251396363,-0.004859345287290262,6765346.723499179,4004961.242867038
5.4999999999999964,-0.08137485261291656,100.643897478381,0.07092002563377814,36.34076835460427,1.5639464382618533,-0.0024474159049275492,1.568844801309527,-0.0048983630476737705,6762068.878430307,4001683.397798166
5.599999999999996,-0.07337359379512245,104.34632644850663,0.08001258817794114,37.02428970125626,1.5636974560199552,-0.0024898224189808405,1.5686352464807722,-0.004937790460816993,6758791.033300338,3998405.5526681975
5.699999999999996,-0.06441983767464922,108.11719138066698,0.08953756120473241,37.708649321603566,1.5634442568401965,-0.0025319917975881855,1.5684218743935552,-0.004977617553358682,6755513.188107843,3995127.707475702
5.799999999999995,-0.0544695938276681,111.95657622796521,0.09950243846981122,38.39384847298238,1.5631868644944524,-0.0025739234574401995,1.5682047080940318,-0.0050178435995793524,6752235.342853042,3991849.862220902
5.899999999999995,-0.04347810004186761,115.8645650687514,0.10991493785800488,39.07988840786184,1.5629253032756294,-0.002615612188230251,1.5679837637987346,-0.005058460523105213,6748957.497534993,3988572.016902853
5.999999999999995,-0.03139979434717233,119.84124210607908,0.12078305694695281,39.766770373276806,1.5626595985633502,-0.0026570471227919776,1.5677590500836356,-0.005099451520285347,6745679.652151352,3985294.1715192115
6.099999999999994,-0.01818834500009165,123.88669166738033,0.13211449347080675,40.454495613012554,1.562389776329074,-0.002698222342762019,1.5675305828572246,-0.005140806528150632,6742401.806701063,3982016.326068923
6.199999999999994,-0.0037966700330882546,128.00099820411333,0.14391674967003396,41.14306536733009,1.5621158628351952,-0.0027391349387882362,1.5672983822101991,-0.005182519375003913,6739123.961183848,3978738.480551708
6.299999999999994,0.011823047647085834,132.184246291399,0.1561971768017409,41.83248087285677,1.5618378844171608,-0.002779784180344679,1.5670624710048906,-0.00522458658772984,6735846.115599978,3975460.634967838
6.399999999999993,0.028719410752279545,136.43652062731357,0.1689636310519371,42.52274335914557,1.5615558684682151,-0.0028201594894557143,1.566822859222505,-0.005266990754289935,6732568.269947319,3972182.7893151795
6.499999999999993,0.046941820293253125,140.75790603232855,0.18222409540973575,43.21385405014993,1.5612698437333954,-0.0028602473481977035,1.56657955374003,-0.005309710006634605,6729290.424223079,3968904.943590939
6.5999999999999925,0.06654046551945202,145.14848744886243,0.19598645226198885,43.905814165338775,1.5609798401909247,-0.002900035424705912,1.566332563753543,-0.005352723562618289,6726012.5784248235,3965627.097792683
6.699999999999992,0.08756630874308849,149.6083499408663,0.21025843223636465,44.59862492003882,1.5606858888440287,-0.0029395134689593565,1.5660819017450176,-0.0053960129009889,6722734.732550685,3962349.251918545
6.799999999999992,0.11007102941147932,154.137578693688,0.22504720668390832,45.292287528216974,1.560388020770596,-0.0029786807343262904,1.565827592227716,-0.00543957145712004,6719456.88660111,3959071.4059689697
6.8999999999999915,0.13410702494961976,158.73625901359998,0.24035995538140434,45.98680319911968,1.5600862672130391,-0.003017535575568162,1.565569658491514,-0.005483391278474858,6716179.040576335,3955793.5599441947
6.999999999999991,0.15972745683809172,163.40447632698852,0.2562043188847197,46.68217313388538,1.559780660495842,-0.0030560671719712233,1.5653081130004896,-0.00552745250464759,6712901.19447447,3952515.713842329
7.099999999999991,0.1869861993949324,168.14231618021796,0.27258742556840676,47.37839853229438,1.559471233166733,-0.003094273291089547,1.565042978721388,-0.005571745554654894,6709623.348295671,3949237.8676635306
7.19999999999999,0.2159378671525599,172.94986423892541,0.2895166775762748,48.075480587074644,1.5591580185760772,-0.003132145906559158,1.564774272012616,-0.005616253436538932,6706345.502038784,3945960.021406644
7.29999999999999,0.2466377718166004,177.8272062878567,0.3069990466404051,48.773420489312976,1.5588410501717693,-0.0031696840430780636,1.5645020175320496,-0.005660967360280322,6703067.655704304,3942682.1750721633
7.39999999999999,0.2791419167911941,182.7744282304245,0.3250414497459368,49.47221942567774,1.558520361481547,-0.0032068869022226242,1.5642262400555418,-0.005705878573994738,6699789.809292767,3939404.3286606274
7.499999999999989,0.3135071458322577,187.7916160868795,0.34365229041063616,50.17187856454988,1.5581959889090569,-0.003243725724901934,1.5639469337450436,-0.005750944835986704,6696511.962798499,3936126.4821663587
7.599999999999989,0.34979100687819886,192.87885599494206,0.36283861045941157,50.872399080625854,1.557867969337844,-0.0032801957121276824,1.5636641202416488,-0.005796150903804698,6693234.116221287,3932848.635589148
7.699999999999989,0.3880517262131764,198.0362342095352,0.38260719334977517,51.5737821459313,1.5575363397528967,-0.0033162958494730387,1.5633778254055815,-0.005841485652684719,6689956.269561781,3929570.7889296417
7.799999999999988,0.42834830730304746,203.263837101288,0.4029658108987103,52.27602891752814,1.557201139136448,-0.003352006164487115,1.5630880551808521,-0.005886916044404167,6686678.4228165485,3926292.942184409
7.899999999999988,0.47074047459908236,208.56175115651783,0.42392167296034877,52.97914055229814,1.5568624075416058,-0.0033873159484214153,1.5627948261769729,-0.005932418635367087,6683400.575984276,3923015.095352136
7.999999999999988,0.5152886137164489,213.93006297732165,0.4454813911736645,53.68311820803834,1.5565201851047379,-0.0034222243686787574,1.5624981656449617,-0.005977980540223804,6680122.729065805,3919737.2484336654
8.099999999999987,0.5620537672164932,219.36885928112125,0.4676515350004441,54.38796303799578,1.5561745120724917,-0.003456730322462053,1.562198100562318,-0.006023588489826315,6676844.882061928,3916459.4014297887
8.199999999999987,0.6110976288537849,224.87822690022517,0.49043861637291664,55.09367619103939,1.5558254288013669,-0.003490832711247996,1.5618946579258073,-0.006069229124440412,6673567.034973445,3913181.5543413064
8.299999999999986,0.6624825351628555,230.45825278142482,0.5138490630907051,55.80025881199649,1.5554729757094132,-0.0035245309195359657,1.5615878652236859,-0.006114889514272637,6670289.187801263,3909903.7071691244
8.399999999999986,0.7162714627844394,236.109023985525,0.5378892762158389,56.50771204100173,1.5551171933328214,-0.0035578237659180502,1.5612777493859091,-0.00616055605308774,6667011.340546179,3906625.8599140393
8.499999999999986,0.7725280219249409,241.83062768692187,0.5625655914050142,57.21603701396873,1.5547581223126774,-0.003590710201440726,1.5609643374911852,-0.0062062151785078346,6663733.493209021,3903348.0125768823
8.599999999999985,0.8313164496554937,247.62315117318667,0.5878842773055284,57.92523486264799,1.5543958033793532,-0.0036231893332408986,1.560647656782332,-0.006251853402978735,6660455.645790661,3900070.165158522
8.699999999999985,0.8927016051557267,253.48668184462716,0.61385155500233,58.635306714404955,1.554030277372753,-0.003655260066002337,1.5603277343214454,-0.006297456948692437,6657177.798291933,3896792.3176597934
8.799999999999985,0.9567489634163722,259.4213072138722,0.6404735826064539,59.34625369245045,1.5536615852350797,-0.003686921376732979,1.5600045972572008,-0.006343012022121064,6653899.950713694,3893514.4700815543
8.899999999999984,1.0235246089551129,265.42711490546014,0.6677564553874064,60.05807691587937,1.5532897680043847,-0.0037181723069500848,1.5596782728143495,-0.006388504809964779,6650622.10305682,3890236.6224246807
8.999999999999984,1.0930952305277408,271.5041926554168,0.6957062157262791,60.7707774995665,1.5529148668267085,-0.0037490117767622418,1.5593487881223171,-0.006433921295608602,6647344.255322172,3886958.774690033
9.099999999999984,1.165528116257798,277.6526283108301,0.7243288573005712,61.48435655413319,1.5525369229763506,-0.0037794385035797027,1.559016170149529,-0.006479247173178493,6644066.4075105805,3883680.9268784416
9.199999999999983,1.2408911447922484,283.87250982948945,0.7536302853445034,62.19881518659322,1.552155977804629,-0.003809451717215142,1.5586804463484967,-0.006524468543867679,6640788.559622977,3880403.0789908385
9.299999999999983,1.3192527817863913,290.16392527944834,0.7836163699414286,62.914154499588676,1.5517720727858229,-0.0038390501880615417,1.5583416437781423,-0.006569570992319473,6637510.7116602175,3877125.2310280795
