time[s],x[m],y[m],vx[m/s],vy[m/s],theta[rad],theta_dot[rad/s],gamma[rad],alpha[rad],mass[kg],mass_propellant[kg]
0.1,-0.00010278633748911418,1.5560712555790004,-0.0010278633748911417,0.5607125557900038,1.570794372897188,-1.9538977084222364e-05,1.5726294625307342,-0.001835089633546172,6937905.914225923,3965075.267327439
0.2,-0.0003093781641164082,1.6682830724981217,-0.0020659182662729402,1.1221181691912125,1.5707904404969133,-3.9324002747860416e-05,1.572637412688329,-0.0018469721914156079,6934787.95988022,3961957.312981736
0.30000000000000004,-0.0006195365597499814,1.8367048985793377,-0.003101583956335731,1.684218260812159,1.5707845231008317,-5.917396081540881e-05,1.5726378817301103,-0.0018533586292786008,6931670.005290376,3958839.358391892
0.4,-0.0010327551213763727,2.0614062661850703,-0.004132185616263912,2.2470136760573247,1.5707766134712204,-7.909629611324417e-05,1.5726352924417126,-0.0018586789704921891,6928552.050944673,3955721.404046189
0.5,-0.0015482198435236173,2.342456838495503,-0.005154647221472446,2.810505723104329,1.5707667043594795,-9.909111740827968e-05,1.5726303886861042,-0.0018636843266246483,6925434.09659897,3952603.449700486
0.6,-0.002164807868078414,2.6799263750241145,-0.00616588024554797,3.3746953652861142,1.570754788500569,-0.0001191585891048189,1.572623417159221,-0.0018686286586520051,6922316.142253267,3949485.495354783
0.7,-0.002881085859440842,3.0738847664064783,-0.00716277991362428,3.9395839138236397,1.5707408586145093,-0.00013929886059750685,1.5726144812441156,-0.0018736226296063307,6919198.1879075635,3946367.5410090797
0.7999999999999999,-0.0036953085913109434,3.5244020114414765,-0.008142227318701014,4.505172450349981,1.5707249074038125,-0.0001595121069681368,1.5726036312972906,-0.0018787238934780959,6916080.23356186,3943249.5866633765
0.8999999999999999,-0.0046054173163312465,4.031548217225477,-0.00910108725020303,5.07146205784,1.5707069275547694,-0.00017979849043219095,1.5725908936035362,-0.0018839660487668386,6912962.279216157,3940131.6323176734
0.9999999999999999,-0.005609031453790385,4.595393599286622,-0.010036141374591388,5.638453820611454,1.5706869118658395,-0.00020015688929845424,1.5725762705693882,-0.0018893587035486714,6909844.324870454,3937013.6779719703
1.0999999999999999,-0.006703449607041159,5.216008493296975,-0.010944181532507738,6.206148940103531,1.5706648531986351,-0.00022058667204482346,1.572559766617834,-0.0018949134191987849,6906726.370524751,3933895.723626267
1.2,-0.007885652211634717,5.89346334363984,-0.011822026045935586,6.7745485034286475,1.5706407443986314,-0.00024108800003671464,1.5725413898112184,-0.0019006454125869432,6903608.416179048,3930777.769280564
1.3,-0.009152300227479279,6.6278287035444015,-0.012666480158445627,7.343653599045617,1.5706145782904506,-0.00026166108180879867,1.5725211450242276,-0.001906566733776982,6900490.462321626,3927659.815423142
1.4000000000000001,-0.010499733455047254,7.419175269989623,-0.013474332275679755,7.913465664452208,1.570586347680648,-0.0002823060980241284,1.5724990345370364,-0.001912686856388346,6897372.507975923,3924541.861077439
1.5000000000000002,-0.011923969052470222,8.26757382591504,-0.014242355974229676,8.483985559254174,1.5705560453559972,-0.0003030232465091047,1.572475059331127,-0.0019190139751297242,6894254.554118501,3921423.907220017
1.6000000000000003,-0.013420699953640735,9.173095275113893,-0.014967309011705131,9.055214491988528,1.5705236640839166,-0.00032381272080547383,1.5724492192133424,-0.0019255551294257156,6891136.600261079,3918305.9533625953
1.7000000000000004,-0.014985293260827762,10.135810630785711,-0.015645933071870278,9.627153556718188,1.5704891966128998,-0.00034467471016889727,1.5724215132225203,-0.0019323166096205657,6888018.645915376,3915187.999016892
1.8000000000000005,-0.016612592012423995,11.155791027296779,-0.016272987515962335,10.199803965110684,1.5704526393948561,-0.00036557218043578224,1.572391747036768,-0.0019391076419119635,6884900.692057954,3912070.0451594703
1.9000000000000006,-0.01829706847700997,12.233107697073113,-0.01684476464585976,10.77316669776333,1.5704139896626792,-0.00038649732176918803,1.5723599107800978,-0.0019459211174186475,6881782.738200532,3908952.0913020484
2.0000000000000004,-0.02003286407030855,13.367832017231875,-0.017357955932985808,11.34724320158762,1.5703732446571657,-0.0004074500551363371,1.5723260324763042,-0.0019527878191385462,6878664.78434311,3905834.1374446265
2.1000000000000005,-0.021813788411800514,14.560035451614048,-0.017809243414919632,11.922034343821748,1.5703304016285256,-0.00042843028640177837,1.5722901347855824,-0.0019597331570568866,6875546.829997407,3902716.1830989234
2.2000000000000006,-0.023633318595558915,15.80978959744185,-0.01819530183758402,12.497541458278011,1.5702854578329528,-0.0004494379557282959,1.5722522362665554,-0.0019667784336026006,6872428.875651704,3899598.2287532203
2.3000000000000007,-0.02548459819264383,17.117166173834907,-0.01851279597084915,13.07376576393056,1.5702384105347793,-0.00047047298173603865,1.5722123521338556,-0.0019739415990762677,6869310.921794282,3896480.2748957984
2.400000000000001,-0.02736043642231941,18.48223699865942,-0.018758382296755804,13.650708248245147,1.570189257005192,-0.0004915352958727884,1.5721704950906532,-0.0019812380854611344,6866192.96793686,3893362.3210383765
2.500000000000001,-0.02925330728767163,19.905074011962437,-0.018928708653522187,14.22837013303016,1.5701379945220242,-0.0005126248316780675,1.5721266757603571,-0.0019886812383329566,6863075.0140794385,3890244.3671809547
2.600000000000001,-0.031155348624313586,21.385749264467666,-0.01902041336641956,14.806752525052298,1.5700846203701906,-0.0005337415183351893,1.5720809030632004,-0.0019962826930097766,6859957.059733735,3887126.4128352515
2.700000000000001,-0.0330583556068661,22.92433494104699,-0.019030069825525096,15.38585676579324,1.570029131947918,-0.0005548842227258392,1.5720331809013066,-0.002004048953388571,6856839.105388032,3884008.4584895484
2.800000000000001,-0.034953766507321744,24.520903314209278,-0.0189541090045565,15.965683731622864,1.5699715270182246,-0.0005760492969334588,1.571983504269948,-0.002011977251723307,6853721.151042329,3880890.5041438453
2.9000000000000012,-0.03683259272103395,26.175526779223368,-0.018788262137122064,16.546234650140896,1.5699118050141843,-0.000597220040402985,1.571931827073929,-0.0020200220597448304,6850603.197184907,3877772.5502864234
3.0000000000000013,-0.03868550569993915,27.888277865940054,-0.018529129789051968,17.127510867166873,1.5698499653862201,-0.0006183962796420605,1.5718781607346992,-0.0020281953484790893,6847485.242839204,3874654.5959407203
3.1000000000000014,-0.04050283638645284,29.659229215617334,-0.018173306865136945,17.70951349677278,1.5697860076023267,-0.0006395778389339121,1.5718225153736645,-0.002036507771337792,6844367.288493501,3871536.641595017
3.2000000000000015,-0.04227457473769246,31.488453581046738,-0.01771738351239616,18.292243654294055,1.5697199311467867,-0.0006607645554008146,1.5717649000495946,-0.00204496890280792,6841249.334147798,3868418.687249314
3.3000000000000016,-0.043990335937611535,33.37602381499712,-0.0171576119991908,18.875702339503835,1.5696517361459517,-0.0006819500083503303,1.5717053052776648,-0.0020535691317131732,6838131.380290376,3865300.733391892
3.4000000000000017,-0.045639366431924434,35.32201290542348,-0.01649030494312902,19.459890904263606,1.569581423245004,-0.0007031290094750589,1.5716437262524323,-0.0020623030074282678,6835013.425944673,3862182.779046189
3.5000000000000018,-0.04721054791664497,37.32649397565998,-0.015711814847205317,20.044810702364995,1.5695089935251119,-0.0007242971989216083,1.5715801611679292,-0.0020711676428173398,6831895.47159897,3859064.824700486
3.600000000000002,-0.048692418944369695,39.389540226030675,-0.014818710277247264,20.63046250370693,1.5694344480905578,-0.0007454543455412622,1.5715146193550389,-0.002080171264481123,6828777.517741548,3855946.870843064
3.700000000000002,-0.05007317460418212,41.511224992504125,-0.013807556598124233,21.21684766473452,1.5693577880687464,-0.0007666002181131749,1.5714471093648175,-0.0020893212960710894,6825659.563395845,3852828.916497361
3.800000000000002,-0.051340665994966755,43.69162173516568,-0.012674913907846384,21.803967426615596,1.5692790146134434,-0.0007877345530286333,1.5713776390043734,-0.002098624390930004,6822541.609538423,3849710.962639939
3.900000000000002,-0.05248240025892916,45.930804026623676,-0.011417342639624083,22.391822914579915,1.5691981288996124,-0.0008088571383104573,1.5713062156812874,-0.002108086781674956,6819423.655681001,3846593.008782517
4.000000000000002,-0.0534854865073413,48.228845552159086,-0.010030862484121378,22.980415255354107,1.5691151331327684,-0.0008299576684411492,1.5712328229041097,-0.0021176897713413023,6816305.701335298,3843475.054436814
4.100000000000001,-0.054336612238149055,50.585820121614056,-0.008511257308077568,23.56974569454967,1.5690300309907963,-0.0008510214197211832,1.5711574362039,-0.002127405213103728,6813187.746989595,3840357.100091111
4.200000000000001,-0.05502212017054356,53.00180165779682,-0.006855079323945018,24.15981536182759,1.5689428261790535,-0.0008720481174286235,1.5710800656826869,-0.0021372395036334257,6810069.793132173,3837239.146233689
4.300000000000001,-0.05552800827762877,55.476864196609824,-0.005058881070852136,24.75062538813007,1.5688535224312365,-0.0008930374781697824,1.5710007208625645,-0.0021471984313279346,6806951.839274751,3834121.192376267
4.4,-0.05583992987655229,58.011081887200504,-0.003119215989235225,25.34217690590678,1.5687621235087392,-0.0009139892249735674,1.57091941077403,-0.0021572872652908526,6803833.885417329,3831003.2385188453
4.5,-0.0559431937188533,60.604529015617004,-0.0010326384230100703,25.934471284164974,1.5686686332010882,-0.000934903076510453,1.570836144010029,-0.0021675108089407313,6800715.931071626,3827885.284173142
4.6,-0.05582275309870178,63.25727998146456,0.001204406201515208,26.527509658475598,1.568573055532431,-0.0009557766865709088,1.5707509246363,-0.002177869103868968,6797597.977214204,3824767.3303157203
4.699999999999999,-0.055463191573797976,65.96940929802328,0.0035956152490380306,27.12129316558722,1.5684753950326917,-0.000976604997394235,1.5706637514340531,-0.002188356401361391,6794480.022868501,3821649.375970017
4.799999999999999,-0.05484872558556135,68.74099159241193,0.006144659882366289,27.715822943886533,1.5683756566905533,-0.000997383421384316,1.5705746245638594,-0.0021989678733060902,6791362.068522798,3818531.421624314
4.899999999999999,-0.05396320266684576,71.5721016174977,0.008855229187155882,28.311100250857596,1.5682738459923258,-0.0010181069822745904,1.5704835438645297,-0.0022096978722039307,6788244.114177095,3815413.467278611
4.999999999999998,-0.05279012588660948,74.462814240269,0.0117307678023628,28.90712622771306,1.56816996847029,-0.0010387752203566952,1.5703905179619462,-0.0022205494916560653,6785126.159831392,3812295.512932908
5.099999999999998,-0.05131263972105196,77.41320444197639,0.014774861655575199,29.503902017073926,1.5680640299737219,-0.0010593849656820053,1.5702955503073677,-0.00223152033364582,6782008.2054856885,3809177.5585872047
5.1999999999999975,-0.049513516221373906,80.42334731827422,0.017991234996780542,30.101428762978347,1.5679560369372927,-0.0010799303642907742,1.5701986397882064,-0.002242602850913711,6778890.250895845,3806059.603997361
5.299999999999997,-0.04737517347153159,83.49331807936906,0.021383427498423167,30.699707610948405,1.5678459960432831,-0.0011004089400963022,1.5700997916906776,-0.0022537956473944742,6775772.297038423,3802941.650139939
5.399999999999997,-0.04487968144311199,86.62319207375256,0.024954920284196,31.298739943835045,1.5677339141220907,-0.0011208192119230758,1.5699990130678598,-0.002265098945769095,6772654.34269272,3799823.695794236
5.4999999999999964,-0.042008765992186274,89.81304475296788,0.028709154509257147,31.89852679215318,1.567619798087679,-0.0011411603441186225,1.5698963119777674,-0.0022765138900884274,6769536.388835298,3796705.741936814
5.599999999999996,-0.03874377136342276,93.06295169534796,0.032649946287635116,32.499069423800755,1.5675036556516966,-0.0011614243598235996,1.5697916846349236,-0.0022880289832269973,6766418.434489595,3793587.787591111
5.699999999999996,-0.035065690376945444,96.37298859437594,0.03678080986477315,33.100368990279826,1.5673854947693984,-0.0011816088229830517,1.5696851369245575,-0.0022996421551590984,6763300.480143892,3790469.833245408
5.799999999999995,-0.0309551759578178,99.74323128247406,0.041105144191276456,33.70242688098122,1.567265323438465,-0.001201713309333012,1.5695766780154616,-0.002311354576996605,6760182.525554048,3787351.878655564
5.899999999999995,-0.02639252065177383,103.17375567201482,0.0456265530604397,34.305243895407614,1.5671431500988329,-0.001221733396320846,1.569466310710593,-0.002323160611760189,6757064.571208345,3784233.924309861
5.999999999999995,-0.02135766782931712,106.66463782644159,0.050348528224567105,34.90882154426767,1.5670189834347894,-0.0012416666404347397,1.5693540411179296,-0.0023350576831402403,6753946.616862642,3781115.969964158
6.099999999999994,-0.015830215785027156,110.21595391308766,0.05527452044289963,35.51316086646074,1.5668928323171054,-0.001261511176841023,1.5692398763281004,-0.0023470440109949475,6750828.6625169385,3777998.0156184547
6.199999999999994,-0.009789393838671872,113.82778022700481,0.06040821946355284,36.118263139171454,1.5667647062641419,-0.0012812605296347833,1.5691238166051256,-0.0023591103409836833,6747710.708171235,3774880.0612727515
6.299999999999994,-0.0032140852136641543,117.50019319112559,0.06575308625007717,36.724129641207796,1.566634615034922,-0.0013009122921998969,1.5690058686783932,-0.0023712536434712383,6744592.753581392,3771762.106682908
6.399999999999993,0.0039171613475377405,121.23326932084647,0.07131246561201894,37.33076129720889,1.5665025684309906,-0.0013204660393141242,1.5688860421826953,-0.002383473751704779,6741474.798991548,3768644.152093064
6.499999999999993,0.011626131164347842,125.02708524786763,0.07708969816810102,37.93815927021154,1.5663685763074546,-0.0013399212353585612,1.5687643464998242,-0.002395770192369584,6738356.844645845,3765526.197747361
6.5999999999999925,0.019934986003464765,128.8817177440767,0.08308854839116925,38.54632496209068,1.566232649385467,-0.0013592692198752321,1.5686407796763124,-0.0024081302908454116,6735238.890300142,3762408.243401658
6.699999999999992,0.028866222516355882,132.7972436861021,0.08931236512891116,39.15525942025403,1.5660947984956648,-0.0013785088980216918,1.5685153507125456,-0.002420552216880756,6732120.935710298,3759290.288811814
6.799999999999992,0.038442683192776925,136.7737400910983,0.09576460676421045,39.76496404996208,1.5659550348079685,-0.0013976368769634637,1.5683880655549824,-0.0024330307470139534,6729002.981120454,3756172.3342219703
6.8999999999999915,0.04868755196259503,140.81128405747597,0.10244868769818105,40.37543966377682,1.5658133697719447,-0.0014166503602371227,1.568258931074046,-0.0024455613021012734,6725885.02653061,3753054.3796321265
6.999999999999991,0.059624342262550305,144.90995283636596,0.10936790299955279,40.9866877888998,1.5656698149189219,-0.001435548530228423,1.568127956908825,-0.0024581419899030177,6722767.072184907,3749936.4252864234
7.099999999999991,0.07127692226789709,149.06982378421043,0.11652580005346774,41.59870947844472,1.5655243823579457,-0.001454325609761161,1.5679951462598107,-0.0024707639018650696,6719649.1175950635,3746818.4706965797
7.19999999999999,0.08366948775927578,153.29097437481263,0.12392565491378697,42.21150590602214,1.5653770842962673,-0.0014729806167835624,1.5678605087942323,-0.0024834244979650144,6716531.16324936,3743700.5163508765
7.29999999999999,0.09682657034614077,157.57348222329503,0.13157082586864985,42.82507848482398,1.5652279332155685,-0.0014915108069876073,1.5677240519371887,-0.002496118721620144,6713413.208659517,3740582.561761033
7.39999999999999,0.11077302764465749,161.91742503862713,0.13946457298516712,43.43942815332094,1.5650769417251018,-0.0015099149046679788,1.5675857851341741,-0.0025088434090723144,6710295.254069673,3737464.607171189
7.499999999999989,0.12553403795454846,166.32288065950132,0.1476101030989097,44.05455620874193,1.564924122481727,-0.001528192433747889,1.567445718743965,-0.002521596262238024,6707177.2992356885,3734346.6523372047
7.599999999999989,0.14113513751104276,170.7899270306491,0.1560109955649429,44.67046371147774,1.5647694889207486,-0.0015463356097831706,1.5673038544027478,-0.0025343654819991457,6704059.344645845,3731228.697747361
7.699999999999989,0.15760220242903095,175.3186422387643,0.1646706491798819,45.2871520811523,1.5646130549406072,-0.001564339801415042,1.5671601978734573,-0.002547142932850077,6700941.38981186,3728110.7429133765
7.799999999999988,0.17496142427133238,179.90910447688398,0.17359221842301417,45.90462238119666,1.5644548344859686,-0.0015822045463868555,1.5670147601040698,-0.0025599256181012553,6697823.435222017,3724992.788323533
7.899999999999988,0.19323931263237343,184.5613920564546,0.1827788836104105,46.5228757957061,1.5642948416304807,-0.0015999285548787625,1.566867551110484,-0.00257270948000321,6694705.480632173,3721874.833733689
7.999999999999988,0.21246270659567695,189.27558340748925,0.19223393963303528,47.141913510346455,1.5641330908160163,-0.0016175081446455413,1.5667185781456223,-0.002585487329606062,6691587.5257981885,3718756.8788997047
8.099999999999987,0.2326587670654721,194.05175706677096,0.20196060469795132,47.76173659281696,1.5639695967525615,-0.0016349406345465484,1.5665678498713727,-0.0025982531188111224,6688469.571452485,3715638.9245540015
8.199999999999987,0.2538549638509493,198.88999171385402,0.21196196785477212,48.38234647083064,1.5638043742024723,-0.0016522255008931154,1.5664153773934706,-0.0026110031909982734,6685351.616862642,3712520.969964158
8.299999999999986,0.27607907329075737,203.7903661473345,0.22224109439808087,49.00374433480487,1.5636374379767792,-0.0016693622569298782,1.5662611719050972,-0.0026237339283179395,6682233.662028657,3709403.0151301734
8.399999999999986,0.29935917634058523,208.75295928500313,0.23280103049827874,49.625931376686225,1.5634688029380066,-0.0016863503877267605,1.5661052446057084,-0.0026364416677018276,6679115.707194673,3706285.060296189
8.499999999999986,0.32372365721854796,213.77785015201513,0.2436448087796274,50.24890867011992,1.563298484004076,-0.0017031893393054521,1.565947606576795,-0.002649122572718987,6675997.7523606885,3703167.1054622047
8.599999999999985,0.34920127806664114,218.86511788102737,0.254776208480932,50.872677290122326,1.563126497574889,-0.0017198642918702072,1.565788253855707,-0.002661756280817995,6672879.797526704,3700049.1506282203
8.699999999999985,0.3758211001447169,224.0148417483095,0.2661982207807578,51.497238672821226,1.5629528601106277,-0.0017363746426143523,1.5656271981831928,-0.002674338072565119,6669761.84293686,3696931.1960383765
8.799999999999985,0.4036124819976119,229.2271011379439,0.27791381852894975,52.122593896344064,1.5627775881275165,-0.0017527198311121249,1.5654644512270346,-0.0026868630995180443,6666643.888347017,3693813.241448533
8.899999999999984,0.43260507696264383,234.50197555397108,0.2899259496503191,52.74874416027184,1.5626006982020555,-0.0017688992546109038,1.5653000247545412,-0.0026993265524857257,6663525.933757173,3690695.286858689
8.999999999999984,0.46282884117731843,239.839544632552,0.30223764214674614,53.37569078580913,1.5624222071590907,-0.0017849104296479698,1.5651339286600898,-0.002711721500999076,6660407.9789231885,3687577.3320247047
9.099999999999984,0.4943140382238536,245.23988811812643,0.3148519704653518,54.00343485574432,1.562242132197189,-0.001800749619015916,1.5649661716584489,-0.002724039461259764,6657290.024333345,3684459.377434861
9.199999999999983,0.5270912197484188,250.70308586354403,0.32777181524565147,54.6319774541761,1.5620604905732711,-0.0018164162391797166,1.5647967657717785,-0.0027362751985073874,6654172.06949936,3681341.4226008765
