time[s],x[m],y[m],vx[m/s],vy[m/s],theta[rad],theta_dot[rad/s],gamma[rad],alpha[rad],mass[kg],mass_propellant[kg]
0.1,-0.00011786396519953262,1.5648742265547881,-0.0011786396519953262,0.6487422655478806,1.5707928565354643,-3.4702594323460726e-05,1.5726131320468082,-0.001820275511343894,9087109.212804327,5520183.885779965
0.2,-0.00035368661718720014,1.6947001426857866,-0.0023582265198766753,1.2982591613099839,1.5707858973917848,-6.959143679487427e-05,1.5726127776211287,-0.0018268802293439634,9082792.045323858,5515866.718299496
0.30000000000000004,-0.0007066200664780854,1.8895553518999906,-0.003529334492908853,1.9485520921420387,1.5707754417278672,-0.00010455663917597129,1.5726075848298398,-0.0018321431019725498,9078474.87784339,5511549.550819027
0.4,-0.0011753104458124624,2.1495175807429856,-0.004686903793343769,2.5996222884299494,1.5707614799829317,-0.00013961744935610569,1.5725992420629864,-0.0018377620800547056,9074157.710851202,5507232.38382684
0.5,-0.001757831419297421,2.474664696573805,-0.005825209734849588,3.2514711583081946,1.5707440025585506,-0.00017477424381068417,1.5725878861287697,-0.0018438835702190293,9069840.543370733,5502915.216346371
0.6,-0.0024516814788200377,2.8650746901175648,-0.006938500595226166,3.904099935437595,1.5707229998275027,-0.0002100273104796367,1.5725735592952819,-0.0018505594677791226,9065523.375890264,5498598.048865902
0.7,-0.003253781545633068,3.3208256932562907,-0.008021000668130301,4.5575100313872605,1.5706984621342732,-0.0002453769322958601,1.5725562773668982,-0.0018578152326249597,9061206.208409796,5494280.8813854335
0.7999999999999999,-0.004160472386416506,3.841995996861649,-0.009066908407834372,5.211703036053581,1.5706703797996098,-0.00028082334663475717,1.572536045884365,-0.0018656660847551354,9056889.040929327,5489963.713904965
0.8999999999999999,-0.005167512369555528,4.428663997996411,-0.010070399831390218,5.8666800113476185,1.5706387431154496,-0.00031636684160110705,1.5725128666302155,-0.0018741235147659019,9052571.873448858,5485646.546424496
0.9999999999999999,-0.006270074777103955,5.080908217712546,-0.011025624075484271,6.522442197161348,1.5706035423527729,-0.00035200762676815,1.5724867386437593,-0.001883196290986433,9048254.70596839,5481329.378944027
1.0999999999999999,-0.007462666833504323,5.798807336565401,-0.011925920564003677,7.178991188528555,1.5705647700676886,-0.0003877228508433352,1.57245755039586,-0.0018927803281714173,9043937.53848792,5477012.2114635585
1.2,-0.008739197617874304,6.582440159430604,-0.012765307843699825,7.836328228652029,1.5705224190450198,-0.00042351022668748534,1.572425316313949,-0.0019028972689292267,9039620.371007452,5472695.04398309
1.3,-0.010092978435265056,7.431885597951922,-0.01353780817390752,8.494454385213176,1.5704764822269193,-0.00045936818100526924,1.5723900485453708,-0.0019135663184515206,9035303.203526983,5468377.876502621
1.4000000000000001,-0.011516726703595404,8.347222723787993,-0.014237482683303488,9.15337125836072,1.570426952539648,-0.0004952968727145303,1.5723517614866065,-0.0019248089469585672,9030986.036046514,5464060.709022152
1.5000000000000002,-0.013002563831512704,9.328530751092716,-0.014858371279173012,9.81308027304723,1.5703738228963617,-0.000531296432861262,1.5723104650176463,-0.0019366421212845264,9026668.868566046,5459743.5415416835
1.6000000000000003,-0.01454201322645519,10.375889018961225,-0.015394493949424843,10.473582678685082,1.5703170861955855,-0.0005673670077614224,1.572266166040499,-0.0019490798449135482,9022351.701085577,5455426.374061215
1.7000000000000004,-0.016125998195104598,11.489376991575105,-0.015839849686494076,11.134879726138807,1.5702567353229853,-0.0006035087260033648,1.5722188692373318,-0.00196213391434652,9018034.533605108,5451109.206580746
1.8000000000000005,-0.017744840086832317,12.669074276089185,-0.0161884189172772,11.796972845140807,1.570192763146283,-0.0006397217670214675,1.5721685778773105,-0.00197581473102737,9013717.36612464,5446792.039100277
1.9000000000000006,-0.019387922641237856,13.91506060505016,-0.0164308255440554,12.45986328960974,1.5701251722927931,-0.0006759085348998218,1.572115026337413,-0.001989854044619932,9009400.19864417,5442474.8716198085
2.0000000000000004,-0.021043888864158165,15.227415872069027,-0.016559662229203083,13.123552670188682,1.5700539693602207,-0.0007120293257249592,1.5720581538212028,-0.0020041844609821613,9005083.031163702,5438157.70413934
2.1000000000000005,-0.022700774697330905,16.606220060950466,-0.016568858331727394,13.78804188881438,1.569979161002695,-0.0007480835752562825,1.5719980094188664,-0.0020188484161713927,9000765.863683233,5433840.536658871
2.2000000000000006,-0.02434600946629944,18.0515533346682,-0.016452347689685343,14.453332737177309,1.5699007539226473,-0.0007840708004774467,1.5719346345390581,-0.0020338806164108547,8996448.696202764,5429523.369178402
2.3000000000000007,-0.025966415973251288,19.563495946662226,-0.016204065069518485,15.119426119940277,1.5698187548746323,-0.0008199904801489963,1.571868064487641,-0.002049309613008754,8992131.528722296,5425206.2016979335
2.400000000000001,-0.027548210737851943,21.142128329898412,-0.015817947646006542,15.78632383236187,1.569733170664067,-0.0008558421056530808,1.571798329700715,-0.0020651590366480566,8987814.361730108,5420889.034705746
2.500000000000001,-0.02907700419520187,22.7875310258723,-0.015287934573499256,16.454026959738876,1.5696440081482559,-0.0008916251581111088,1.5717254568012857,-0.002081448653029838,8983497.19424964,5416571.867225277
2.600000000000001,-0.03053780078992867,24.499784738175702,-0.014607965947268035,17.122537123033993,1.569551274239708,-0.0009273390854792326,1.5716494691941894,-0.0020981949544813805,8979180.02676917,5412254.6997448085
2.700000000000001,-0.031914999436017555,26.278970297043497,-0.013771986460888815,17.791855588677933,1.569454975900547,-0.0009629833916107811,1.5715703879175074,-0.0021154120169604163,8974862.859288702,5407937.53226434
2.800000000000001,-0.033192387919058416,28.125168641667997,-0.012773884830408632,18.461983446244993,1.5693551203128426,-0.0009985558770441178,1.5714882287689826,-0.0021331084561400093,8970545.691808233,5403620.364783871
2.9000000000000012,-0.03435303155117888,30.03846087382336,-0.011606436321204616,19.13292232155362,1.5692517181423773,-0.001034021704654376,1.5714029479216887,-0.00215122977931137,8966228.524327764,5399303.197303402
3.0000000000000013,-0.0353793901168135,32.018928186684875,-0.010263585656346214,19.80467312861514,1.5691447801423337,-0.0010693800004358206,1.5713145673470557,-0.00216978720472194,8961911.357335577,5394986.030311215
3.1000000000000014,-0.036253262246546916,34.06665193632319,-0.00873872129733415,20.477237496383122,1.5690343188047169,-0.001104613376168323,1.5712230797086324,-0.00218876090391551,8957594.19083167,5390668.8638073085
3.2000000000000015,-0.03695576518975736,36.18171364189975,-0.007025029432104401,21.15061705576557,1.568920348981963,-0.0011396982275383284,1.571128469784165,-0.002208120802202007,8953277.023839483,5386351.696815121
3.3000000000000016,-0.037467414843375055,38.36419493227005,-0.005116496536176943,21.824812903703062,1.5688028855940361,-0.0011746338792677075,1.5710307616312922,-0.002227876037256049,8948959.856847296,5382034.5298229335
3.4000000000000017,-0.03776810691872334,40.61417756396921,-0.0030069207534828804,22.499826316991566,1.5686819442265052,-0.001209413675308799,1.5709299687480929,-0.002248024521587677,8944642.69034339,5377717.363319027
3.5000000000000018,-0.03783711653642858,42.93174345712047,-0.0006900961770523592,23.17565893151264,1.5685575411852484,-0.0012440304125680092,1.570826103561067,-0.002268562375818739,8940325.52286292,5373400.1958385585
3.600000000000002,-0.03765305566612685,45.316974659863185,0.00184060870301725,23.85231202742718,1.568429694795318,-0.0012784638993041748,1.570719159906536,-0.00228946511121797,8936008.355382452,5369083.02835809
3.700000000000002,-0.037193923803960575,47.76995333057439,0.0045913186216627825,24.529786707112066,1.5682984239818036,-0.0013127081351436416,1.570609153599187,-0.0023107296173834335,8931691.188390264,5364765.861365902
3.800000000000002,-0.036437111234709586,50.29076177380331,0.007568125692509892,25.208084432289212,1.5681637482377653,-0.0013467574403846366,1.5704961006715887,-0.002332352433823459,8927374.020909796,5360448.6938854335
3.900000000000002,-0.03535937616931124,52.87948242253485,0.010777350653983497,25.887206487315364,1.5680256883598127,-0.0013805987795248522,1.5703800072496952,-0.0023543188898824674,8923056.85440589,5356131.527381527
4.000000000000002,-0.033936849295354496,55.53619787416806,0.014225268739567407,26.567154516332096,1.5678842663901833,-0.0014142196962947597,1.5702608811425838,-0.0023766147524004744,8918739.687413702,5351814.36038934
4.100000000000001,-0.03214505081014828,58.260990836919795,0.017917984852062127,27.24792962751735,1.567739505195439,-0.0014476119474429857,1.5701387361994175,-0.0023992310039784304,8914422.519933233,5347497.192908871
4.200000000000001,-0.029958892237779585,61.053944147890206,0.02186158572368699,27.929533109704103,1.5675914285019232,-0.0014807669351575832,1.570013586132062,-0.002422157630138866,8910105.352452764,5343180.025428402
4.300000000000001,-0.02735267127041752,63.91514079115407,0.026062209673620638,28.6119664326387,1.5674400611330341,-0.0015136736888915546,1.5698854420947155,-0.0024453809616813427,8905788.185460577,5338862.858436215
4.4,-0.024300078810929722,66.84466387995607,0.030525924594877966,29.295230888020058,1.5672854288971927,-0.0015463223584143905,1.5697543171359398,-0.0024688882387471356,8901471.017980108,5334545.690955746
4.5,-0.020774200271741844,69.84259667484788,0.035258785391878794,29.97932794891812,1.5671275586461566,-0.0015787025103617804,1.5696202240752126,-0.002492665429056018,8897153.85049964,5330228.523475277
4.6,-0.0167475412873236,72.90902256586676,0.04026658984418242,30.664258910188796,1.5669664776356085,-0.0016108101054812982,1.5694831834765595,-0.0025167058409509835,8892836.68301917,5325911.3559948085
4.699999999999999,-0.012192003295833101,76.04402507267912,0.04555537991490499,31.350025068123568,1.5668022143362557,-0.0016426329935280818,1.5693432068132813,-0.002540992477025661,8888519.515538702,5321594.18851434
4.799999999999999,-0.00707888480895419,79.24768782672598,0.051131184868789106,32.0366275404686,1.566634798517118,-0.0016741581913760383,1.5692003054474881,-0.002565506930370054,8884202.348058233,5317277.021033871
4.899999999999999,-0.0013789083971168922,82.52009464338195,0.05699976411837297,32.72406816655978,1.5664642605672439,-0.0017053794987413543,1.5690544985422743,-0.0025902379750304405,8879885.180577764,5312959.853553402
4.999999999999998,0.004937785810596526,85.86132943208841,0.06316694207713418,33.4123478870646,1.5662906318145047,-0.0017362875273916416,1.568905802159035,-0.002615170344530293,8875568.013097296,5308642.6860729335
5.099999999999998,0.011901612521505154,89.27147623250252,0.06963826710908627,34.10146800414113,1.5661139438460265,-0.001766879684780671,1.5687542396243201,-0.002640295778293611,8871250.845616827,5304325.518592465
5.1999999999999975,0.019543565367780586,92.750619232679,0.07641952846275432,34.79143000176484,1.5659342293412757,-0.0017971450475091938,1.5685998259451026,-0.002665596603826925,8866933.678136358,5300008.351111996
5.299999999999997,0.027895262434303958,96.29884278729007,0.0835169706652337,35.48223554611075,1.565751523516572,-0.0018270582470375646,1.5684425625760976,-0.002691039059525613,8862616.51065589,5295691.183631527
5.399999999999997,0.03698885591062955,99.9162313275663,0.09093593476325595,36.17388540276231,1.5655658616593147,-0.001856618572572763,1.5682824762036256,-0.0027166145443109357,8858299.34317542,5291374.0161510585
5.4999999999999964,0.046857027432689886,103.60286946973903,0.09868171522060332,36.86638142172747,1.565377279134087,-0.0018858252522759693,1.5681195932579102,-0.0027423141238231974,8853982.175694952,5287056.84867059
5.599999999999996,0.057533010380560336,107.3588419249135,0.1067598294787045,37.55972455174477,1.5651858121755835,-0.0019146695850354258,1.5679539326282417,-0.0027681204526581737,8849665.008214483,5282739.681190121
5.699999999999996,0.06905059378664939,111.18423353532808,0.11517583406089055,38.25391610414577,1.5649914981554849,-0.0019431402009871981,1.5677855112296681,-0.0027940130741832547,8845347.840734014,5278422.513709652
5.799999999999995,0.08144410272205818,115.07912931068599,0.12393508935408787,38.948957753579144,1.5647943751669513,-0.001971229885336828,1.5676143502229427,-0.0028199750559914083,8841030.673253546,5274105.3462291835
5.899999999999995,0.09474840105426158,119.04361437407013,0.13304298332203401,39.644850633841486,1.564594482268956,-0.0019989289799529873,1.5674404689278374,-0.002845986658881472,8836713.505773077,5269788.178748715
5.999999999999995,0.10899887242592567,123.07777398017942,0.14250471371664092,40.34159606109281,1.5643918591040782,-0.002026231648777214,1.5672638904289515,-0.0028720313248733476,8832396.338292608,5265471.011268246
6.099999999999994,0.12423144131863453,127.1816935154851,0.1523256889270887,41.039195353056826,1.5641865466715146,-0.0020531243256366014,1.5670846314728561,-0.0028980848013415716,8828079.17081214,5261153.843787777
6.199999999999994,0.14048252258204966,131.35545849839158,0.16251081263415124,41.73764982906479,1.5639785860438267,-0.0020796062768784654,1.566902720133568,-0.002924134089741237,8823762.00284339,5256836.675819027
6.299999999999994,0.1577890376584272,135.5991545975359,0.1730651507637753,42.43696099144306,1.5637680190127323,-0.00210567031094334,1.5667181791781177,-0.002950160165385407,8819444.83536292,5252519.5083385585
6.399999999999993,0.1761884145393569,139.91286757753153,0.18399376880929702,43.137129799956305,1.5635548882692805,-0.0021313074345190217,1.5665310301959652,-0.0029761419266847167,8815127.667882452,5248202.34085809
6.499999999999993,0.19571857155707714,144.2966833716906,0.19530157017720243,43.83815794159067,1.563339237119481,-0.002156511497994827,1.566341297494464,-0.003002060374982962,8810810.500401983,5243885.173377621
6.5999999999999925,0.2164179505150572,148.7506880459219,0.2069937895798004,44.54004674231312,1.5631211106266378,-0.0021812649284319273,1.5661489967060844,-0.0030278860794465956,8806493.332433233,5239568.005408871
6.699999999999992,0.23832545109267367,153.27496778074263,0.21907500577616462,45.24279734820751,1.5629005539183825,-0.0022055670825534826,1.565954157291119,-0.003053603372736635,8802176.164464483,5235250.837440121
6.799999999999992,0.26148042398441396,157.8696088895856,0.23154972891740302,45.94641108842971,1.5626776121868722,-0.0022294173151035704,1.5657568087296987,-0.0030791965428265122,8797858.996984014,5230933.669959652
6.8999999999999915,0.28592270082424215,162.53469783714326,0.24442276839828206,46.650889475576506,1.5624523317364534,-0.0022528045041872525,1.5655569726345429,-0.0031046408980894835,8793541.828526983,5226616.501502621
6.999999999999991,0.31169256830397196,167.27032118501054,0.257698674797298,47.35623347867293,1.562224759461544,-0.0022757227490952697,1.5653546750366922,-0.003129915575148301,8789224.660558233,5222299.333533871
7.099999999999991,0.33883076115553706,172.0765656645935,0.2713819285156512,48.06244479582948,1.5619949428432862,-0.0022981661825768975,1.5651499422710329,-0.003154999427746663,8784907.493077764,5217982.166053402
7.19999999999999,0.3673784709137302,176.9535181044859,0.2854770975819313,48.76952439892413,1.56176293041795,-0.0023201242533628665,1.5649427975554298,-0.0031798671374798637,8780590.325597296,5213664.9985729335
7.29999999999999,0.3973773097105578,181.90126548527144,0.29998838796827554,49.47747380785527,1.5615287709323225,-0.0023415948562752016,1.5647332704391639,-0.0032044995068414295,8776273.158116827,5209347.831092465
7.39999999999999,0.428869310602667,186.91989492149796,0.31492000892109157,50.18629436226511,1.561292513580472,-0.002362573518503961,1.5645213889935865,-0.0032288754131144515,8771955.989659796,5205030.6626354335
7.499999999999989,0.46189690823456425,192.00949364363825,0.3302759763189729,50.89598722140282,1.5610542076672447,-0.0023830591322728566,1.5643071837705544,-0.003252976103309768,8767638.821691046,5200713.4946666835
7.599999999999989,0.496502989892756,197.17014903471528,0.3460608165819176,51.606553910770245,1.560813904308084,-0.0024030335916066957,1.5640906740555174,-0.0032767697474334057,8763321.653234014,5196396.326209652
7.699999999999989,0.5327308309796831,202.40194859402538,0.3622784108692715,52.317995593101,1.5605716547820119,-0.0024224952607199927,1.563871890631183,-0.0033002358491711625,8759004.485265264,5192079.158240902
7.799999999999988,0.5706240831630071,207.70497997381494,0.37893252183324,53.030313797895474,1.5603275104291137,-0.0024414435289824665,1.5636508651609287,-0.003323354731814998,8754687.316808233,5187761.989783871
7.899999999999988,0.6102267724964975,213.0793309429645,0.396026893334904,53.74350969149564,1.560081522841514,-0.0024598758759983683,1.563427628178142,-0.003346105336628158,8750370.148839483,5183444.821815121
7.999999999999988,0.6515833205358156,218.5250893871367,0.4135654803931814,54.45758444172179,1.5598337446934776,-0.002477781480362851,1.5632022049769612,-0.0033684602834835875,8746052.981359014,5179127.654334652
8.099999999999987,0.6947385007525724,224.04234334553797,0.43155180216756733,55.17253958401281,1.559584228723956,-0.002495159695215813,1.562974627725887,-0.0033903990019308328,8741735.813390264,5174810.486365902
8.199999999999987,0.7397374709344162,229.63118097455722,0.44998970181843884,55.888376290192625,1.5593330289150793,-0.002511998088767738,1.5627449213310307,-0.003411892415951412,8737418.645421514,5170493.318397152
8.299999999999986,0.7866257315421794,235.2916905662494,0.4688826060776313,56.60509591692167,1.5590801995338857,-0.002528293811937325,1.5625131170441857,-0.0034329175103000598,8733101.477941046,5166176.1509166835
8.399999999999986,0.8354491091762657,241.02396056685345,0.4882337763408623,57.32270000604055,1.5588257949079447,-0.0025440462594095463,1.562279247685992,-0.0034534527780472057,8728784.309484014,5161858.982459652
8.499999999999986,0.8862537477438185,246.82807954039572,0.5080463856755281,58.041189735422705,1.5585698694206602,-0.002559254872844709,1.5620433461388663,-0.003473476718206081,8724467.141026983,5157541.814002621
8.599999999999985,0.9390860993213259,252.70413616885483,0.5283235157750741,58.76056628459122,1.5583124775136552,-0.0025739190700512435,1.5618054454392674,-0.003492967925612156,8720149.973058233,5153224.646033871
8.699999999999985,0.9939929162893542,258.6522192890356,0.549068169680282,59.480831201807675,1.5580536736861963,-0.00258803827458956,1.5615655786070581,-0.0035119049208618414,8715832.804601202,5148907.47757684
8.799999999999985,1.0510213102844548,264.67241783775984,0.5702839399510053,60.201985487242126,1.5577935144709987,-0.002601592151977291,1.5613237674073863,-0.0035302529363876456,8711515.63614417,5144590.3091198085
8.899999999999984,1.1102186759580286,270.7648209071344,0.5919736567357378,60.92403069374534,1.5575320564754083,-0.0026145799559046078,1.5610800453665084,-0.0035479888911000845,8707198.46817542,5140273.1411510585
8.999999999999984,1.1716326804779589,276.92951770804314,0.6141400451993025,61.64696800908763,1.5572693563594375,-0.0026270011597071875,1.5608344462785118,-0.003565089919074227,8702881.29971839,5135955.972694027
9.099999999999984,1.2353112547334009,283.1665976071372,0.6367857425544194,62.370798990940514,1.557005470835447,-0.002638855239905187,1.5605870040254985,-0.0035815331900515,8698564.131261358,5131638.804236996
9.199999999999983,1.3013025836595804,289.47615009029687,0.6599132892617964,63.095524831597,1.5567404566665384,-0.0026501416890862637,1.5603377525930215,-0.0035972959264831683,8694246.962804327,5127321.635779965
9.299999999999983,1.3696550968311083,295.8582647628403,0.6835251317152791,63.82114672543448,1.5564743706642388,-0.002660860022996671,1.5600867260723308,-0.003612355408092016,8689929.794835577,5123004.467811215
