time[s],x[m],y[m],vx[m/s],vy[m/s],theta[rad],theta_dot[rad/s],gamma[rad],alpha[rad],mass[kg],mass_propellant[kg]
0.1,-0.0001630840606778736,1.6027092332293806,-0.0016308406067787361,1.0270923322938057,1.5707924560767001,-3.8707181964944984e-05,1.5723841482447856,-0.0015916921680854124,5735241.4176034415,4267400.9854876725
0.2,-0.0004915992057486511,1.8082453416702062,-0.003285151450707774,2.055361084408255,1.5707846424987477,-7.813577952535293e-05,1.5723946584350847,-0.0016100159363370281,5731883.620972582,4264043.188856813
0.30000000000000004,-0.0009845315603416913,2.116726234922953,-0.004929323545930403,3.084808932527469,1.5707728748683112,-0.00011767630436599222,1.572394260235265,-0.0016213853669537759,5728525.824341723,4260685.392225954
0.4,-0.0016400936993891562,2.528270076662756,-0.0065556213904746485,4.11543841739803,1.570757141446453,-0.00015733421858129805,1.57238925935293,-0.001632117906477104,5725168.027710863,4257327.595595094
0.5,-0.0024556966774156447,3.0429952710508466,-0.008156029780264886,5.147251943880905,1.5707374305216018,-0.00019710924851257852,1.5723808660875578,-0.0016434355659560307,5721810.231080004,4253969.798964235
0.6,-0.003427947075076982,3.6610204910546185,-0.009722503976613374,6.18025220003772,1.5707137303904746,-0.00023700131127099835,1.5723694820062777,-0.0016557516158031138,5718452.434449145,4250612.002333376
0.7,-0.004552644489804831,4.382464636880821,-0.011246974147278491,7.214441458262022,1.57068602932768,-0.0002770106279451982,1.572355278392336,-0.001669249064655931,5715094.6383065665,4247254.2061907975
0.7999999999999999,-0.005824777612739397,5.20744687827751,-0.012721331229345661,8.249822413966893,1.5706543155886086,-0.0003171373907150352,1.5723383383083664,-0.0016840227197578717,5711736.841675707,4243896.409559938
0.8999999999999999,-0.007238520255646284,6.136086640957635,-0.014137426429068869,9.28639762680125,1.5706185774129697,-0.0003573817563879891,1.5723187056629364,-0.0017001282499666814,5708379.045044848,4240538.612929079
0.9999999999999999,-0.008787196492989188,7.168503578919901,-0.01548676237342905,10.324169379622656,1.570578803757451,-0.00039773655518571553,1.5722963749041592,-0.001717571146708119,5705021.24890227,4237180.816786501
1.0999999999999999,-0.010463179032016897,8.304817630836975,-0.016759825390277084,11.363140519170749,1.5705349866075604,-0.0004381714989074777,1.5722712547172277,-0.001736268109667316,5701663.4527596915,4233823.0206439225
1.2,-0.012257968856033172,9.545148950330354,-0.017947898240162744,12.403313194933796,1.570487119019232,-0.00047867588328317996,1.5722433502983097,-0.0017562312790777579,5698305.656128832,4230465.224013063
1.3,-0.01416215435083313,10.889617962428542,-0.01904185494799957,13.444690120981864,1.5704351960139245,-0.0005192300530762066,1.5722126362854407,-0.001777440271516273,5694947.859986254,4227107.427870485
1.4000000000000001,-0.01616541897321031,12.338345335818026,-0.02003264622377178,14.487273733894835,1.5703792143355044,-0.0005598167842008068,1.5721791013475022,-0.0017998870119977362,5691590.063843676,4223749.631727907
1.5000000000000002,-0.0182565725403598,13.891452025355758,-0.020911535671494938,15.531066895377304,1.5703191716587999,-0.0006004267670462804,1.5721427586386114,-0.0018235869798115534,5688232.2672128165,4220391.8350970475
1.6000000000000003,-0.02042349600424661,15.54905921622788,-0.02166923463886808,16.576071908721225,1.5702550678423175,-0.0006410381648237807,1.5721035859823858,-0.001848518140068256,5684874.470581957,4217034.038466188
1.7000000000000004,-0.022653222951541267,17.311288352374206,-0.02229726947294657,17.622291361463265,1.5701869029698947,-0.0006816487242270709,1.5720616138745755,-0.001874710904680832,5681516.673951098,4213676.241835329
1.8000000000000005,-0.024931944739208373,19.17826109458622,-0.022787217876671064,18.66972742212012,1.5701146771938226,-0.0007222577607221923,1.5720168698722479,-0.0019021926784252852,5678158.87780852,4210318.445692751
1.9000000000000006,-0.027245009237723862,21.15009941937432,-0.023130644985154877,19.718383247881025,1.5700383907280488,-0.0007628646577368839,1.57196937602945,-0.0019309853014011225,5674801.08117766,4206960.649061891
2.0000000000000004,-0.02957665965745019,23.226925534850082,-0.023316504197263284,20.768261154757603,1.5699580499525272,-0.0008034077552175889,1.571919025234938,-0.001960975282410793,5671443.284546801,4203602.852431032
2.1000000000000005,-0.03191021972636903,25.40886189510562,-0.023335600689188423,21.819363602555384,1.5698736630478884,-0.0008438690463870063,1.5718658168229789,-0.001992153775090433,5668085.488404223,4200245.056288454
2.2000000000000006,-0.034228130598506816,27.696031214615616,-0.023179108721377878,22.87169319509996,1.569785239127866,-0.0008842392002259715,1.5718097673210614,-0.0020245281931954295,5664727.691773363,4196887.259657594
2.3000000000000007,-0.03651198536762175,30.08855645447523,-0.022838547691149323,23.92525239859615,1.5696927874345634,-0.0009245169330255543,1.5717509056797363,-0.0020581182451728797,5661369.895630785,4193529.4635150163
2.400000000000001,-0.03874248485311469,32.5865608367908,-0.02230499485492939,24.980043823155732,1.5695963183839585,-0.0009646905060484205,1.571689239116627,-0.002092920732668535,5658012.099488207,4190171.667372438
2.500000000000001,-0.04089948206581002,35.19016785915543,-0.02156997212695328,26.036070223646263,1.5694958425335372,-0.001004758504212564,1.5716247915749801,-0.0021289490414428958,5654654.303345629,4186813.87122986
2.600000000000001,-0.04296198611891888,37.89950128083922,-0.02062504053108861,27.09333421683788,1.5693913705042895,-0.0010447202924771233,1.5715575855008885,-0.0021662149965990807,5651296.50671477,4183456.0745990006
2.700000000000001,-0.04490816173861547,40.71468505233538,-0.019461756196965902,28.151837714961687,1.569282913007577,-0.0010845749671254453,1.571487640566085,-0.0022047275585079795,5647938.7105721915,4180098.2784564225
2.800000000000001,-0.04671533080713155,43.635843457148496,-0.01807169068516076,29.211584048131165,1.569170480821498,-0.0011243218607903467,1.5714149748062434,-0.002244493984745466,5644580.9136971915,4176740.4815814225
2.9000000000000012,-0.04835997283018055,46.663100970536576,-0.01644642023049003,30.272575133880782,1.5690540847960626,-0.0011639602543527731,1.5713396046144972,-0.0022855198184346115,5641223.117554613,4173382.6854388444
3.0000000000000013,-0.04981738897338123,49.79658237307934,-0.014574161432006759,31.334814025427605,1.5689337437226578,-0.001203410734047073,1.5712614375936793,-0.0023276938710214967,5637865.321412035,4170024.8892962663
3.1000000000000014,-0.051061801218875304,53.03641268015095,-0.012444122454940755,32.39830307071612,1.5688094820559475,-0.001242616667102149,1.571180424746441,-0.002370942690493427,5634507.525269457,4166667.093153688
3.2000000000000015,-0.05206659552939066,56.38271717057903,-0.010047943105153547,33.46304490428078,1.5686813243077935,-0.001281577481539785,1.5710965966248513,-0.0024152723170578483,5631149.728394457,4163309.296278688
3.3000000000000016,-0.05280432493853038,59.835621358551336,-0.007377294091397231,34.52904187972305,1.5685492950547029,-0.0013202925309073097,1.5710099815497793,-0.0024606864950764695,5627791.931763598,4159951.4996478288
3.4000000000000017,-0.05324671296809885,63.39525105068047,-0.0044238802956847656,35.59629692129135,1.568413418938798,-0.0013587611590496595,1.5709206060221064,-0.0025071870833084375,5624434.134888598,4156593.7027728288
3.5000000000000018,-0.05336465717884077,67.06173227524106,-0.0011794421074191952,36.6648122456058,1.5682737206645747,-0.0013969827422329413,1.5708284950247273,-0.002554774360152612,5621076.338013598,4153235.9058978288
3.600000000000002,-0.05312823253542925,70.83519132506471,0.0023642464341152173,37.73459049823658,1.568130225005054,-0.0014349565952079158,1.5707336721748304,-0.0026034471697764516,5617718.541138598,4149878.1090228288
3.700000000000002,-0.052506663962130974,74.71575474357985,0.006215685732982708,38.80563418515142,1.5679829575197923,-0.0014726748526155127,1.5706361519695047,-0.0026531944497123483,5614360.744263598,4146520.3121478288
3.800000000000002,-0.051468333287268575,78.70354935356482,0.01038330674862397,39.87794609984973,1.5678319444801987,-0.001510130395935931,1.5705359496308378,-0.002704005150639066,5611002.947632738,4143162.5155169694
3.900000000000002,-0.04998068389450755,82.79870221466878,0.014876493927610278,40.95152861103958,1.567677215172823,-0.0015472930737566377,1.570433056026313,-0.0027558408534897882,5607645.150757738,4139804.7186419694
4.000000000000002,-0.04801029583961371,87.00134066646255,0.01970388054893835,42.0263845179377,1.5675188002549763,-0.0015841491784678112,1.570327481346229,-0.0028086810912526516,5604287.353882738,4136446.9217669694
4.100000000000001,-0.045522901762123674,91.31159227163347,0.024873940774900422,43.10251605170921,1.567356731495425,-0.001620687595511809,1.570219238951955,-0.002862507456529828,5600929.557251879,4133089.12513611
4.200000000000001,-0.042483363165739314,95.72958487330759,0.030395385963843623,44.17992601674109,1.5671910424368716,-0.0016568905855360398,1.5701083360283066,-0.0029172935914349996,5597571.760376879,4129731.32826111
4.300000000000001,-0.03885575338487925,100.25544653820167,0.03627609780860063,45.25861664894076,1.5670217665907322,-0.0016927584613942248,1.5699947978767357,-0.002973031286003458,5594213.96374602,4126373.5316302506
4.4,-0.03460326059799912,104.88930559969597,0.04252492786880135,46.33859061494311,1.5668489398138048,-0.0017282677692738693,1.5698786269821339,-0.003029687168329076,5590856.16687102,4123015.7347552506
4.5,-0.029688251138431508,109.63129067243736,0.04915009459567609,47.4198507274138,1.5666725989697785,-0.0017634084402626943,1.569759839411639,-0.0030872404418604837,5587498.36999602,4119657.9378802506
4.6,-0.024072288942012895,114.4815305953542,0.05615962196418613,48.50239922916834,1.566492781623369,-0.0017981734640970099,1.5696384542409703,-0.003145672617601347,5584140.57312102,4116300.1410052506
4.699999999999999,-0.017716105683240904,119.44015450347688,0.06356183258771991,49.58623908122677,1.5663095268725675,-0.0018325475080140795,1.5695144833046029,-0.003204956432035333,5580782.77624602,4112942.3441302506
4.799999999999999,-0.010579636970983991,124.50729174224949,0.07136468712256912,50.671372387726166,1.5661228746611524,-0.0018665221141514125,1.5693879449695218,-0.003265070308369422,5577424.97937102,4109584.5472552506
4.899999999999999,-0.0026220104463073202,129.68307192506637,0.0795762652467667,51.75780182816884,1.5659328662073195,-0.001900084538327742,1.5692588541872003,-0.003325987979880818,5574067.18249602,4106226.7503802506
4.999999999999998,0.006198452076097682,134.96762493353935,0.08820462522405002,52.845530084729816,1.5657395441220474,-0.0019332208527205145,1.5691272254882604,-0.0033876813662130356,5570709.38562102,4102868.9535052506
5.099999999999998,0.015924200934432968,140.36108086032237,0.09725748858335284,53.93455926783015,1.5655429517917954,-0.0019659233025210564,1.5689930788498663,-0.0034501270580709065,5567351.58874602,4099511.1566302506
5.1999999999999975,0.02659846134982989,145.86357009548934,0.10674260415396922,55.02489235166968,1.5653431336142012,-0.001998181775941523,1.5688564325816707,-0.003513298967469547,5563993.79187102,4096153.3597552506
5.299999999999997,0.038265225715943915,151.47522328371713,0.1166676436611402,56.11653188227787,1.565140134999614,-0.002029986145872806,1.5687173053077206,-0.0035771703081066697,5560635.994507738,4092795.5623919694
5.399999999999997,0.050969237439860086,157.19617129577009,0.1270401172391617,57.209480120529655,1.5649340021837872,-0.0020613281582679615,1.5685757174106592,-0.0036417152268719555,5557278.197632738,4089437.7655169694
5.4999999999999964,0.0647560102823187,163.02654527183756,0.1378677284245862,58.30373976067484,1.5647247828582358,-0.0020921932555144963,1.5684316848006354,-0.003706901942399643,5553920.400269457,4086079.968153688
5.599999999999996,0.07967182332492626,168.96647657862744,0.14915813042607556,59.399313067898824,1.564512526249769,-0.0021225660846683194,1.5682852233963953,-0.0037726971466263137,5550562.603394457,4082722.171278688
5.699999999999996,0.09576367628880547,175.01609688158828,0.16091852963879208,60.49620302960845,1.5642972822854742,-0.0021524396429494492,1.5681363557213999,-0.0038390734359257106,5547204.805787035,4079364.3736712663
5.799999999999995,0.11307925049141535,181.17553805874493,0.1731557420260988,61.59441177156653,1.5640791009099684,-0.002181813755057423,1.5679851093337842,-0.003906008423815832,5543847.008423754,4076006.576307985
5.899999999999995,0.13166694546774058,187.44493222968242,0.1858769497632524,62.693941709375004,1.563858033129636,-0.0022106778033251706,1.567831504356479,-0.003973471226843106,5540489.211548754,4072648.779432985
5.999999999999995,0.1515758549902841,193.82441179907389,0.19908909522543525,63.79479569391453,1.5636341306736419,-0.002239024559940811,1.5676755636238713,-0.004041432950229407,5537131.414185473,4069290.9820697038
6.099999999999994,0.172855831637233,200.31410942811854,0.21279976646948928,64.89697629044652,1.563407447692717,-0.002266829809249556,1.5675172987729986,-0.004109851080281723,5533773.6168221915,4065933.1847064225
6.199999999999994,0.19555738458686778,206.91415802032654,0.22701552949634768,66.0004859220799,1.5631780386405347,-0.0022940905218226696,1.5673567364484469,-0.004178697807912135,5530415.81921477,4062575.3870990006
6.299999999999994,0.21973165875816647,213.62469070728406,0.24174274171298682,67.10532686957518,1.5629459580204974,-0.0023208062003734794,1.567193904941745,-0.004247946921247525,5527058.021851488,4059217.5897357194
6.399999999999993,0.245430461393849,220.4458409067266,0.25698802635682527,68.2115019944253,1.5627112612316878,-0.0023469678880950503,1.5670288271366122,-0.004317565904924381,5523700.224488207,4055859.792372438
6.499999999999993,0.27270627116969937,227.37774226492365,0.27275809775850357,69.31901358197067,1.5624740050156471,-0.0023725621604070227,1.5668615233984335,-0.004387518382786393,5520342.426392504,4052501.994276735
6.5999999999999925,0.3016121951324678,234.4205286858996,0.2890592396276842,70.4278642097593,1.5622342466973316,-0.0023975831831546685,1.5666920192204898,-0.0044577725231582654,5516984.628785082,4049144.196669313
6.699999999999992,0.3322019760579594,241.5743343171461,0.30589780925491633,71.53805631246516,1.5619920446111009,-0.0024220208623068266,1.5665203377526031,-0.004528293141502271,5513626.83117766,4045786.3990618913
6.799999999999992,0.36452995822566436,248.83929356438992,0.32327982167704944,72.64959247243803,1.5617474575596002,-0.0024458705150060714,1.5663465057163786,-0.0045990481567783625,5510269.033570238,4042428.6014544694
6.8999999999999915,0.3986510731857549,256.21554106282116,0.3412111496009049,73.76247498431238,1.5615005447510086,-0.00246912808591628,1.566170550396443,-0.004670005645434294,5506911.2359628165,4039070.8038470475
6.999999999999991,0.4346208300308207,263.70321172089,0.35969756845065837,74.87670658068832,1.5612513658282154,-0.0024917892279322836,1.5659924990360752,-0.004741133207859738,5503553.438355395,4035713.0062396256
7.099999999999991,0.47249531223020363,271.3024407060683,0.3787448219938293,75.99228985178296,1.560999981048131,-0.002513847800845424,1.5658123779396607,-0.00481239689152968,5500195.6402596915,4032355.2081439225
7.19999999999999,0.5123312219547516,279.01336340151016,0.39835909724547974,77.10922695441856,1.560746452571639,-0.002535284764920279,1.5656302063568608,-0.004883753785221767,5496837.84289641,4028997.4107806413
7.29999999999999,0.5541858272937521,286.8361154789881,0.41854605339000506,78.22752077477968,1.5604908435131566,-0.0025560905848236873,1.5654460094706966,-0.004955165957539975,5493480.045288988,4025639.6131732194
7.39999999999999,0.5981169268642635,294.77083282646095,0.43931099570511395,79.34717347472852,1.560233217420357,-0.0025762609279947374,1.5652598156914594,-0.0050265982711024115,5490122.247193285,4022281.8150775163
7.499999999999989,0.644182828905085,302.8176515774383,0.46065902040821466,80.46818750977343,1.559973638081852,-0.0025957933850489522,1.5650716546923717,-0.005098016610519673,5486764.449830004,4018924.017714235
7.599999999999989,0.6924423401150563,310.9767081403628,0.4825951120997125,81.59056562924474,1.5597121695233553,-0.002614685584967206,1.5648815561277256,-0.005169386604370274,5483406.652222582,4015566.220106813
7.699999999999989,0.7429547521850068,319.2481391697944,0.5051241206995045,82.7143102943157,1.5594488760196137,-0.0026329350374161373,1.5646895498691744,-0.005240673849560729,5480048.854126879,4012208.42201111
7.799999999999988,0.7957798520186113,327.6320815520987,0.5282509983360455,83.83942382304342,1.5591838226026709,-0.0026505341694292458,1.564495663169162,-0.005311840566491144,5476691.056519457,4008850.624403688
7.899999999999988,0.8509779084687404,336.1286724348857,0.551980564501291,84.96590882786982,1.5589170750334604,-0.002667475692104336,1.5642999236260406,-0.005382848592580203,5473333.258423754,4005492.826307985
7.999999999999988,0.9086096670351752,344.73804921275155,0.5763175856643472,86.09376777865835,1.5586486999979416,-0.0026837503551883505,1.5641023582023346,-0.005453658204392919,5469975.461060473,4002135.0289447038
8.099999999999987,0.9687363088989548,353.4603495421601,0.6012664186377956,87.22300329408512,1.5583787644408058,-0.0026993555713572545,1.5639029973721172,-0.005524232931311435,5466617.66296477,3998777.2308490006
8.199999999999987,1.0314194345525631,362.29571132719514,0.626831256536084,88.3536178503505,1.558107335531082,-0.0027142890972397275,1.5637018720872875,-0.005594536556205565,5463259.8648690665,3995419.4327532975
8.299999999999986,1.0967210489903334,371.2442727051982,0.6530161443777037,89.48561378003085,1.557834480600894,-0.0027285493018795576,1.563499013567149,-0.00566453296625502,5459902.066773363,3992061.6346575944
8.399999999999986,1.164703552815082,380.3061720763613,0.6798250382474855,90.6189937116309,1.5575602672633673,-0.002742133375266067,1.5632944526594117,-0.005734185396044422,5456544.26867766,3988703.8365618913
8.499999999999986,1.235429733551763,389.4815480454313,0.7072618073668098,91.75375969069998,1.557284763512685,-0.0027550375068227284,1.56308821976587,-0.005803456253185013,5453186.470581957,3985346.038466188
8.599999999999985,1.3089627317249628,398.7705395246529,0.7353299817319983,92.88991479221608,1.5570080372656805,-0.0027672624700438696,1.562880347713071,-0.005872310447390561,5449828.672486254,3981988.240370485
8.699999999999985,1.385366086901155,408.17328566081255,0.7640335517619224,94.02746136159622,1.556730157710877,-0.0027787955480343034,1.5626708629571286,-0.005940705246251676,5446470.874390551,3978630.442274782
8.799999999999985,1.4647036791891856,417.68992583556775,0.7933759228803068,95.16640174755216,1.5564511943018946,-0.0027896340898235887,1.5624597970012755,-0.0060086026993808606,5443113.076294848,3975272.6441790788
8.899999999999984,1.5470396990729063,427.32059968047236,0.8233601988372066,96.30673844904621,1.55617121639507,-0.0027997790682453374,1.5622471831649904,-0.006075966769920393,5439755.278199145,3971914.8460833756
8.999999999999984,1.6324386569229627,437.06544707733457,0.8539895785005636,97.44847396862194,1.5558902937654469,-0.002809226296232013,1.562033052390416,-0.006142758624969158,5436397.4801034415,3968557.0479876725
9.099999999999984,1.720965362410868,446.92460817330476,0.8852670548790519,98.59161095970214,1.555608496469312,-0.0028179729613478236,1.5618174364418718,-0.006208939972559779,5433039.682007738,3965199.2498919694
9.199999999999983,1.8126848316290225,456.8982233665576,0.9171946921815438,99.73615193252863,1.5553258930746185,-0.0028260339469333646,1.5616003750771574,-0.006274482002538884,5429681.883912035,3961841.4517962663
9.299999999999983,1.9076623850606897,466.9864332771896,0.9497755343166716,100.88209910631966,1.5550425531859777,-0.0028333988864082654,1.5613818966575788,-0.006339343471601033,5426324.085816332,3958483.653700563
