time,x,y,vx,vy,theta,theta_dot,gamma,alpha,mass,mass_propellant
0.1,-0.0009112211128891334,0.009404842830984424,-0.009112211128891334,0.09404842830984422,1.5707792491664743,-0.00017077628422293423,1.6673833464288443,-0.09660409726237007,6940175.845456055,4179790.364823912
0.2,-0.002744682364986193,0.032818950725974703,-0.0183346125209706,0.2341410789499028,1.570744855574311,-0.000343935921631725,1.648942695328543,-0.078197839754232,6937908.916681912,4177523.436049768
0.30000000000000004,-0.005496068726253335,0.06826537800093654,-0.02751386361267142,0.35446427274961845,1.5706931607645322,-0.0005169480977875092,1.6482619769733102,-0.07756881620877798,6935682.700801608,4175297.220169464
0.4,-0.009149018478470933,0.11384390351653982,-0.036529497522175984,0.45578525515603274,1.570624372377421,-0.0006878838711122466,1.6507716711343934,-0.08014729875697246,6933495.610243151,4173110.129611007
0.5,-0.013685744975450765,0.16760271961156514,-0.04536726496979832,0.5375881609502533,1.5705386943870694,-0.0008567799035153747,1.6549872153755727,-0.0844485209885033,6931348.650928226,4170963.1702960823
0.6,-0.019099908134344798,0.22719183406333326,-0.05414163158894031,0.5958911445176811,1.5704360903016636,-0.001026040854057996,1.661405797918898,-0.09096970761723444,6929249.827094942,4168864.346462798
0.7,-0.025381955163174597,0.2892853218607348,-0.06282047028829799,0.6209348779740151,1.570316565634317,-0.00119524667346614,1.671624039471409,-0.10130747383709204,6927218.803109179,4166833.322477035
0.7999999999999999,-0.03251949800787839,0.3510783100815041,-0.07137542844703798,0.6179298822076928,1.5701801561294133,-0.0013640950490364403,1.6857940290343363,-0.11561387290492298,6925245.000752638,4164859.520120494
0.8999999999999999,-0.040469818065852856,0.41025254103522324,-0.07950320057974465,0.5917423095371916,1.5700274417469287,-0.001527143824846214,1.7043509852782435,-0.13432354353131482,6923318.555494169,4162933.0748620243
0.9999999999999999,-0.049214859310273536,0.46611856003624114,-0.08745041244420679,0.5586601900101791,1.569858500860228,-0.0016894088670077576,1.7260722072181713,-0.1562137063579434,6921406.560452879,4161021.0798207344
1.0999999999999999,-0.058737239090095615,0.5188467586348503,-0.0952237977982208,0.5272819859860918,1.5696733595110615,-0.0018514134916638501,1.7494642603995587,-0.17979090088849725,6919491.660094392,4159106.1794622466
1.2,-0.06901697936762721,0.568771616891654,-0.10279740277531604,0.49924858256803695,1.5694720589346312,-0.0020130057643022873,1.7738625464038602,-0.20439048746922905,6917570.54857059,4157185.067938445
1.3,-0.08003341477165407,0.6163832980522982,-0.1101643540402686,0.4761168116064417,1.569254618166001,-0.0021744076863018714,1.7981758743173286,-0.22892125615132763,6915640.092813577,4155254.612181431
1.4000000000000001,-0.09176706683765105,0.662198684190397,-0.11733652065996983,0.4581538613809873,1.5690210005830945,-0.0023361758290643283,1.8215146689228439,-0.2524936683397494,6913699.762114871,4153314.281482726
1.5000000000000002,-0.10420918958187345,0.7073080193441049,-0.12442122744222399,0.45109335153707986,1.5687709166039976,-0.0025008397909688923,1.8399260833039994,-0.27115516670000184,6911738.011106253,4151352.5304741072
1.6000000000000003,-0.11732353889518732,0.7511716235987148,-0.13114349313313867,0.4386360425460984,1.5685046123369968,-0.0026630426700086068,1.8613172654811545,-0.2928126531441577,6909787.693019133,4149402.212386988
1.7000000000000004,-0.1310869587086366,0.7941221879552884,-0.13763419813449276,0.42950564356573634,1.5682220278764376,-0.002825844605592251,1.8809055489362432,-0.31268352105980557,6907831.229573051,4147445.7489409065
1.8000000000000005,-0.14546037687788171,0.8354316172185027,-0.14373418169245122,0.4130942926321424,1.5679234185847943,-0.0029860929164323255,1.905639429568689,-0.3377160109838946,6905889.983203047,4145504.502570902
1.9000000000000006,-0.16041403857637232,0.8755411330063978,-0.14953661698490595,0.4010951578789513,1.5676087820997118,-0.003146364850826307,1.927655096681399,-0.36004631458168723,6903940.406660555,4143554.9260284104
2.0000000000000004,-0.17591394601213103,0.9143541975214834,-0.15499907435758722,0.3881306451508557,1.5672781932342834,-0.0033058886542830976,1.9507402363502528,-0.38346204311596943,6901993.327292911,4141607.8466607663
2.1000000000000005,-0.1919254558956201,0.9520511369737825,-0.16011509883489056,0.3769693945229916,1.5669316929941648,-0.003465002401186525,1.972449244237868,-0.40551755124370326,6900043.174163976,4139657.6935318313
2.2000000000000006,-0.20841230738652428,0.9885712549778689,-0.1648685149090417,0.36520118004086444,1.5665693388733408,-0.0036235412082389414,1.9948518761308436,-0.42828253725750276,6898094.796737232,4137709.3161050878
2.3000000000000007,-0.2253356470796637,1.0239820381962195,-0.16923339693139403,0.35410783218350605,1.5661911987430663,-0.0037814013027440215,2.0166202436033163,-0.4504290448602499,6896145.6168954605,4135760.136263316
2.400000000000001,-0.24265379596220527,1.0582025620628501,-0.17318148882541567,0.34220523866630687,1.5657973764133086,-0.003938223297576262,2.0392920530515894,-0.4734946766382808,6894198.6182208555,4133813.137588711
2.500000000000001,-0.2603257485706989,1.091392111154311,-0.17671952608493632,0.3318954909146088,1.5653879135426294,-0.004094628706791673,2.060069844160319,-0.4946819306176895,6892248.9725208385,4131863.491888694
2.600000000000001,-0.2783115496842886,1.1229923994539452,-0.17985801113589697,0.3160028829963434,1.5649628738686256,-0.004250396740037082,2.0882349429195086,-0.523272069050883,6890311.095151831,4129925.614519687
2.700000000000001,-0.296564967992878,1.1543716203091154,-0.1825341830858941,0.31379220855170137,1.5645222092853486,-0.004406645832771605,2.097654245219138,-0.5331320359337892,6888346.291770474,4127960.8111383296
2.800000000000001,-0.31507530931724437,1.1830804946414748,-0.1851034132436638,0.28708874332359285,1.5640656053326614,-0.0045660395268723435,2.143479252178602,-0.5794136468459408,6886431.218433661,4126045.7378015164
2.9000000000000012,-0.33378158921190076,1.2155759334958718,-0.1870627989465639,0.32495438854397046,1.5635925803443125,-0.004730249883487971,2.093125445562667,-0.5295328652183544,6884387.095343265,4124001.6147111203
3.0000000000000013,-0.351925981983891,1.2793912187810614,-0.18144392771990264,0.6381528528518962,1.5631126605431558,-0.00479919801156706,1.8478127016625292,-0.2847000411193734,6881791.149106122,4121405.6684739767
3.1000000000000014,-0.36969266449285015,1.4085508146015464,-0.1776668250895914,1.2915959582048493,1.5626163947982894,-0.004962657448663849,1.7074944888705552,-0.14487809407226582,6878513.811493838,4118128.3308616932
3.2000000000000015,-0.3870400852493817,1.6031442720243594,-0.17347420756531548,1.9459345742281289,1.5621030392204338,-0.005133555778554852,1.6597082793521334,-0.09760524013169958,6875236.239415103,4114850.758782957
3.3000000000000016,-0.40388188745827047,1.8632512143436941,-0.16841802208888754,2.6010694231933473,1.561572632015019,-0.005304072054149373,1.635455596018908,-0.07388296400388916,6871958.631941111,4111573.1513089654
3.4000000000000017,-0.42012559695690815,2.1889506531193526,-0.16243709498637673,3.256994387756582,1.5610252718114603,-0.005473602035586891,1.6206283489458515,-0.05960307713439117,6868681.002706421,4108295.5220742747
3.5000000000000018,-0.4356739862006311,2.5803214083926007,-0.15548389243722915,3.9137075527324807,1.56046109240323,-0.005641794082302957,1.6105034757822025,-0.05004238337897249,6865403.356825151,4105017.876193005
3.600000000000002,-0.45042425302372424,3.0374422110608155,-0.14750266823093172,4.571208026682146,1.5598802782897017,-0.005808141135284942,1.603052900033765,-0.04317262174406333,6862125.697112636,4101740.21648049
3.700000000000002,-0.4642671473407448,3.560391763615755,-0.13842894317020576,5.229495525549396,1.5592830813219802,-0.00597196967721394,1.5972609491542757,-0.03797786783229551,6858848.024866956,4098462.5442348104
3.800000000000002,-0.4770903653975913,4.149248745725632,-0.12823218056846516,5.888569821098772,1.5586697582825078,-0.006133230394725875,1.5925693413631383,-0.03389958308063057,6855570.341447139,4095184.860814993
3.900000000000002,-0.4887748573559361,4.8040918748678,-0.11684491958344834,6.54843129142168,1.5580406401246858,-0.006291181578218956,1.5886376259411206,-0.030596985816434774,6852292.6463710535,4091907.165738907
4.000000000000002,-0.4991940463438701,5.524999842275475,-0.10419188987933972,7.209079674076753,1.5573961473332032,-0.006444927914826931,1.5852481903857487,-0.027852043052545516,6849014.940034433,4088629.459402287
4.100000000000001,-0.5082116079633049,6.312051302728568,-0.0901756161943484,7.870514604530925,1.5567368322318336,-0.0065931510136953055,1.5822532232232212,-0.025516390991387583,6845737.2223229995,4085351.7416908536
4.200000000000001,-0.5156905817344597,7.165324876386128,-0.0747897377115482,8.532735736575598,1.55606321147929,-0.006736207525435922,1.5795611385559456,-0.023497927076655545,6842459.494323982,4082074.013691836
4.300000000000001,-0.5214928139228534,8.084899138889035,-0.058022321883937626,9.195742625029073,1.555375777945879,-0.006874335334109704,1.5771059370426768,-0.021730159096797763,6839181.757185384,4078796.276553238
4.4,-0.52547750500442,9.070852605634194,-0.039846910815665874,9.859534667451586,1.5546750290978055,-0.007007488480735166,1.5748377643694524,-0.020162735271646914,6835904.011997401,4075518.5313652544
4.5,-0.5275006495138364,10.123263772266853,-0.020231445094163126,10.524111666326583,1.5539614788096114,-0.00713550288194194,1.5727187142432004,-0.01875723543358898,6832626.25878495,4072240.7781528034
4.6,-0.5274124315751452,11.242211042360715,0.0008821793869123393,11.189472700938621,1.5532357071013392,-0.007257717082721673,1.5707174866735913,-0.017481779572252165,6829348.498192976,4068963.0175608294
4.699999999999999,-0.5250603931376346,12.427772781050738,0.02352038437510529,11.855617386900237,1.552498303111253,-0.0073740399008633715,1.5688124272854995,-0.016314124174246603,6826070.730364531,4065685.249732384
4.799999999999999,-0.5202914985290633,13.680027296303386,0.04768894608571328,12.522545152526488,1.551749828627853,-0.007484744833997804,1.5669880981188056,-0.015238269490952527,6822792.956284782,4062407.4756526346
4.899999999999999,-0.5129513575097514,14.999052851956113,0.07340141019311859,13.190255556527273,1.550990834145587,-0.007589944822662328,1.5652315633061882,-0.014240729160601262,6819515.176416436,4059129.6957842885
4.999999999999998,-0.5028840188871384,16.384927663329552,0.1006733862261305,13.858748113734379,1.5502218643213757,-0.007689698242113466,1.563532206353817,-0.013310342032441413,6816237.391177362,4055851.910545214
5.099999999999998,-0.4899323287764607,17.83772989850867,0.12951690110677694,14.528022351791172,1.5494434529698524,-0.0077841135152325065,1.5618815917441244,-0.012438138774272023,6812959.601008273,4052574.120376125
5.1999999999999975,-0.4739373718247717,19.357537678840796,0.15994956951689016,15.198077803321272,1.5486561349800718,-0.00787317989780582,1.5602723864281522,-0.011616251448080428,6809681.806078903,4049296.3254467556
5.299999999999997,-0.45473544130205107,20.94442901071756,0.19201930522720614,15.868913318767627,1.5478605038898696,-0.007956310902022368,1.5586965736184257,-0.010836069728556108,6806404.006657641,4046018.5260254936
5.399999999999997,-0.4321613145012689,22.59848185147756,0.2257412680078221,16.54052840759998,1.5470571530898887,-0.008033507999808407,1.55714940764131,-0.010092254551421265,6803126.202766343,4042740.7221341957
5.4999999999999964,-0.4060487916851511,24.31977409560617,0.2611252281611778,17.21292244128611,1.5462466676531121,-0.008104854367764428,1.5556271885965527,-0.009380520943440551,6799848.394852815,4039462.914220668
5.599999999999996,-0.3762312814751212,26.108383574311514,0.2981751021002994,17.88609478705344,1.5454296152927598,-0.008170523603522876,1.5541270936375742,-0.00869747834481438,6796570.583587315,4036185.102955167
5.699999999999996,-0.34254277870697,27.964388105299598,0.336885027681512,18.560045309880838,1.5446065300230896,-0.008230852696701832,1.5526472311203592,-0.00804070109726962,6793292.769095722,4032907.288463574
5.799999999999995,-0.30481738676037107,29.88786546717219,0.37725391946598885,19.234773618725942,1.5437779226112984,-0.008286074117910823,1.551185721295309,-0.007407798684010647,6790014.951826318,4029629.471194171
5.899999999999995,-0.2628889327732345,31.878893393005534,0.4192845398713656,19.91027925833343,1.5429442892262637,-0.008336333850347119,1.5497407418350566,-0.006796452608792913,6786737.132178987,4026351.6515468406
5.999999999999995,-0.21659128025125163,33.93754958833024,0.4629765252198285,20.58656195324706,1.5421061071740154,-0.008381820522483057,1.5483108580102627,-0.006204750836247275,6783459.310356647,4023073.8297245
6.099999999999994,-0.16575764428283052,36.063911705831295,0.5083363596842112,21.26362117501055,1.5412638489727049,-0.008422582013106004,1.5468944923886894,-0.005630643415984515,6780181.486705996,4019796.006073849
6.199999999999994,-0.11022109828398191,38.25805737752925,0.555365459988486,21.94145671697956,1.5404179744325806,-0.00845874540124298,1.545490490779079,-0.005072516346498412,6776903.661196143,4016518.180563996
6.299999999999994,-0.0498151979133261,40.52006420318117,0.6040590037065581,22.620068256519254,1.5395689205787773,-0.008490538538033145,1.5440981105616332,-0.004529189982855897,6773625.834390986,4013240.3537588385
6.399999999999993,0.01563094942124811,42.85000965090987,0.6544614733457421,23.29945447728698,1.5387171937336486,-0.008517268451287592,1.5427145778343383,-0.003997384100689727,6770348.0059023155,4009962.5252701677
6.499999999999993,0.08629139398214106,45.24797106056476,0.7066044456089294,23.979614096548904,1.5378633472402297,-0.008538464934189796,1.54133796958161,-0.0034746223413804067,6767070.175825245,4006684.6951930975
6.5999999999999925,0.16233866339552022,47.71402576026702,0.7604726941337916,24.660546997022596,1.5370078970004106,-0.00855450239819047,1.5399684715896285,-0.002960574589217835,6763792.344773189,4003406.864141042
6.699999999999992,0.24394551266365977,50.248251055777516,0.8160684926813954,25.342252955104936,1.5361513552369108,-0.008565417634999139,1.5386055585865122,-0.002454203349601336,6760514.512519916,4000129.0318877683
6.799999999999992,0.33128305972257227,52.850724254684,0.8733754705891249,26.02473198906485,1.5352941977975727,-0.008571574393380929,1.5372494754124517,-0.001955277614879014,6757236.679629025,3996851.1989968778
6.8999999999999915,0.42452000110448496,55.521522721166455,0.9323694138191271,26.707984664824533,1.534436851208485,-0.008573465890877,1.5359007348841471,-0.001463883675662192,6753958.846243116,3993573.365610969
6.999999999999991,0.5238230957460723,58.26072385814606,0.9930309464158741,27.392011369796037,1.5335797029148337,-0.00857148293651302,1.5345596209284855,-0.000979918013651826,6750681.01266292,3990295.5320307733
7.099999999999991,0.6293579519122486,61.06840510515739,1.0553485616617628,28.076812470113307,1.5327231169395177,-0.008565859753160479,1.5332261087700654,-0.0005029918305476944,6747403.178776025,3987017.698143878
7.19999999999999,0.7412885983477039,63.94464394986557,1.119306464354552,28.762388447081836,1.5318674271473323,-0.008556897921854406,1.531900323996547,-3.289684921470304e-05,6744125.3446461195,3983739.864013972
7.29999999999999,0.8597761153317696,66.88951797896604,1.1848751698406568,29.448740291004647,1.5310129131709325,-0.008545139763998972,1.530582844231347,0.00043006893958552617,6740847.510496535,3980462.029864388
7.39999999999999,0.9849806120531639,69.90310481716546,1.2520449672139433,30.135868381994168,1.5301598375970709,-0.00853075573861668,1.5292735373785973,0.0008863002184735791,6737569.676359636,3977184.1957274885
7.499999999999989,1.117061044092775,72.98548214856784,1.3208043203961113,30.823773314023793,1.5293084434311324,-0.00851394165938468,1.527972341447564,0.0013361019835682608,6734291.84206165,3973906.3614295023
7.599999999999989,1.2561740255063574,76.13672775231085,1.3911298141358237,31.512456037430102,1.5284589330901615,-0.0084951034097093,1.5266795755524016,0.001779357537759818,6731014.007786761,3970628.5271546133
7.699999999999989,1.4024757561389898,79.35691943500588,1.4630173063263243,32.20191682695033,1.5276115043905063,-0.008474286996552222,1.5253949321095384,0.0022165722809679433,6727736.173553857,3967350.6929217093
7.799999999999988,1.556121590301498,82.64613505205853,1.536458341625083,32.89215617052642,1.5267663432559144,-0.008451611345918285,1.524118259490085,0.0026480837658293677,6724458.339370121,3964072.8587379735
7.899999999999988,1.7172661399141949,86.00445250596829,1.611445496126968,33.58317453909758,1.5259236261919276,-0.008427170639867828,1.522849386894573,0.0030742392973546195,6721180.505242374,3960795.0246102256
7.999999999999988,1.886063279591752,89.43194973882842,1.6879713967755712,34.27497232860129,1.5250835209414564,-0.008401052504712863,1.5215881547861463,0.003495366155310098,6717902.671370819,3957517.1907386705
8.099999999999987,2.0626668881088173,92.92870471922342,1.7660360851706511,34.96754980395,1.5242462005725717,-0.00837320368884733,1.5203342036588565,0.003911996913715132,6714624.837585926,3954239.356953777
8.199999999999987,2.2472301452661037,96.49479545737643,1.8456325715728645,35.66090738153005,1.523411831155816,-0.008343694167555643,1.5190873980352262,0.004324433120589832,6711347.004088512,3950961.5234563625
8.299999999999986,2.4399068126247623,100.13029996338342,1.9267666735865865,36.35504506006995,1.5225805957055858,-0.008312354502302758,1.5178472600634922,0.00473333564209355,6708069.170731747,3947683.690099597
8.399999999999986,2.6408489587039745,103.83529635253424,2.0094214607921206,37.04996389150821,1.5217526531277232,-0.00827942577862459,1.5166139607992732,0.00513869232844999,6704791.337487494,3944405.856855344
8.499999999999986,2.850208245649175,107.609862773539,2.0935928694520065,37.74566421004764,1.520928162276265,-0.008244908514583774,1.515387317027118,0.005540845249146997,6701513.504566097,3941128.0239339466
8.599999999999985,3.068138809036328,111.45407726710721,2.1793056338715293,38.442144935682066,1.5201073350884824,-0.008208271877825602,1.5141664093002347,0.005940925788247675,6698235.672099302,3937850.1914671515
8.699999999999985,3.2947932295041915,115.368017967421,2.2665442046786355,39.13940700313795,1.5192903635813728,-0.008169715071095814,1.5129514120191432,0.006338951562229633,6694957.840262815,3934572.3596306653
8.799999999999985,3.5303220230986776,119.35176315530315,2.3552879359448604,39.837451878821476,1.5184774111394979,-0.008129524418749054,1.5117426149998048,0.006734796139693078,6691680.008813506,3931294.528181356
8.899999999999984,3.7748752936932966,123.40539116183218,2.44553270594619,40.53628006529044,1.5176686432441484,-0.008087678953494543,1.5105398798171301,0.007128763427018292,6688402.177772549,3928016.697140399
8.999999999999984,4.028602962616832,127.52898034684294,2.537276689235354,41.23589185010755,1.5168642321934265,-0.008044110507219072,1.5093430210653533,0.007521211128073135,6685124.347369511,3924738.8667373606
9.099999999999984,4.291654173860707,131.72260915452472,2.6305121124387476,41.9362880768177,1.5160643467607955,-0.007998854326309769,1.5081520072804433,0.007912339480352193,6681846.517417024,3921461.036784874
9.199999999999983,4.564177275390669,135.98635610714223,2.725231015299627,42.63746952617504,1.5152691523980675,-0.007951943627281091,1.506966812795436,0.008302339602631381,6678568.687922587,3918183.207290436
9.299999999999983,4.846319793039132,140.32029979922353,2.8214251764846288,43.33943692081319,1.5144788112941514,-0.007903411039160578,1.5057874189708513,0.008691392323300073,6675290.859088241,3914905.3784560906
9.399999999999983,5.13822840935082,144.7245189217041,2.919086163116876,44.04219122480542,1.5136934824846229,-0.007853288095284447,1.504613812949899,0.009079669534723944,6672013.0307246465,3911627.550092496
