time[s],x[m],y[m],vx[m/s],vy[m/s],theta[rad],theta_dot[rad/s],gamma[rad],alpha[rad],mass[kg],mass_propellant[kg]
0.1,-0.0002231488603994425,1.5740266934930767,-0.002231488603994425,0.7402669349307669,1.570792581342556,-3.745452340606307e-05,1.5738107554282432,-0.003018174085687164,5735721.106568285,4267880.674452516
0.2,-0.0006764216767645545,1.722166490057632,-0.00453272816365112,1.4813979656455518,1.5707849642385618,-7.617103994163232e-05,1.5738560812454074,-0.0030711170068455917,5732842.998658129,4265002.56654236
0.30000000000000004,-0.0013595816555863182,1.9445059948692045,-0.006831599788217636,2.2233950481157256,1.5707734591410545,-0.00011505097507302756,1.5738689154000582,-0.0030954562590037593,5729964.890503832,4262124.458388063
0.4,-0.002271662278588931,2.241131939170214,-0.009120806230026125,2.966259443010093,1.5707580507004806,-0.00015408440573992145,1.5738711682443942,-0.003113117543913635,5727086.782349535,4259246.350233766
0.5,-0.003411007945070697,2.61213123630292,-0.011393456664817659,3.709992971327062,1.570738723816032,-0.0001932688444860536,1.5738673355367623,-0.003128611720730312,5724208.674439379,4256368.24232361
0.6,-0.004775280575638585,3.057590940023943,-0.013642726305678879,4.4545970372102275,1.5707154634637954,-0.00023260352236652944,1.5738589345992402,-0.0031434711354447753,5721330.566529223,4253490.134413454
0.7,-0.00636145937451144,3.5775982726623976,-0.015861787988728546,5.200073326384548,1.5706882546396093,-0.00027208824186102673,1.5738466181656083,-0.003158363525999075,5718452.4586190665,4250612.0265032975
0.7999999999999999,-0.008165838924673988,4.172240611356895,-0.018043795501625482,5.946423386944978,1.5706570823307113,-0.0003117230889789801,1.5738307121637256,-0.00317362983301428,5715574.350953051,4247733.918837282
0.8999999999999999,-0.01018402613109994,4.841605516246887,-0.020181872064259518,6.693649048899923,1.5706219315056675,-0.00035150825043867863,1.5738113953713067,-0.0031894638656391194,5712696.243042895,4244855.810927126
0.9999999999999999,-0.012410919393230463,5.585780702726269,-0.022268932621305224,7.441751864793815,1.5705827874015232,-0.0003914410414430071,1.573788749352934,-0.003205961951410652,5709818.135376879,4241977.70326111
1.0999999999999999,-0.014840708122558442,6.404854027621537,-0.024297887293279787,8.190733248952686,1.5705396354712557,-0.0004315193026748511,1.573762827507335,-0.0032231920360792365,5706940.027710863,4239099.595595094
1.2,-0.017466774434393616,7.29891351741722,-0.026260663118351735,8.940594897956824,1.570492462964791,-0.0004717250646482561,1.5737335572474889,-0.0032410942826979205,5704061.919800707,4236221.487684938
1.3,-0.020281738754668557,8.268047340438217,-0.028149643202749423,9.691338230209979,1.5704412581115847,-0.000512048532061398,1.5737009374245206,-0.0032596793129358037,5701183.8121346915,4233343.3800189225
1.4000000000000001,-0.023277477660109583,9.312343863145395,-0.029957389054410234,10.442965227071783,1.5703860097690727,-0.0005524834251206482,1.573664985861341,-0.0032789760922682376,5698305.704468676,4230465.272352907
1.5000000000000002,-0.026445154038928574,10.431891608291037,-0.03167676378818992,11.195477451456414,1.570326706867934,-0.0005930290113860384,1.5736257442444839,-0.003299037376549796,5695427.59680266,4227587.164686891
1.6000000000000003,-0.02977519661399799,11.626779241073413,-0.03330042575069418,11.948876327823754,1.5702633387034906,-0.0006336816444342474,1.5735832281422906,-0.0033198894388000166,5692549.489624926,4224709.057509157
1.7000000000000004,-0.033257255942818253,12.89709561146147,-0.034820593288202646,12.70316370388058,1.5701958956187816,-0.0006744308470897687,1.5735374160928741,-0.0033415204740925297,5689671.3824471915,4221830.9503314225
1.8000000000000005,-0.03688018130962166,14.242929698210693,-0.03622925366803405,13.458340867492229,1.570124369341485,-0.000715262772965618,1.573488275714296,-0.003363906372811032,5686793.275269457,4218952.843153688
1.9000000000000006,-0.040632078556151675,15.664370693427182,-0.03751897246530014,14.214409952164893,1.5700487519766826,-0.0007561736480250112,1.5734358232960308,-0.003387071319348234,5683915.1676034415,4216074.7354876725
2.0000000000000004,-0.04450032568154273,17.16150790434314,-0.03868247125391059,14.971372109159567,1.5699690357053868,-0.0007971627129574278,1.5733800836404965,-0.0034110479351097123,5681037.060425707,4213196.628309938
2.1000000000000005,-0.04847150494489937,18.73443082383025,-0.03971179263356638,15.729229194871117,1.5698852138727144,-0.0008382183267250674,1.573321034634374,-0.0034358207616596026,5678158.953247973,4210318.521132204
2.2000000000000006,-0.052531360972248885,20.383229102477756,-0.04059856027349509,16.48798278647505,1.569797281644345,-0.0008793222836940747,1.5732586339643135,-0.0034613523199684693,5675280.846070238,4207440.413954469
2.3000000000000007,-0.05666486529872021,22.107992562887855,-0.04133504326471327,17.247634604100977,1.5697052348988831,-0.0009204674546184741,1.5731928852261043,-0.0034876503272212034,5672402.738892504,4204562.306776735
2.400000000000001,-0.06085625492851605,23.908811185790768,-0.041913896297958386,18.008186229029135,1.5696090695542724,-0.0009616534461067833,1.5731238138654768,-0.003514744311204465,5669524.631226488,4201684.199110719
2.500000000000001,-0.06508903135630727,25.78577509614436,-0.04232776427791219,18.769639103535926,1.5695087815536044,-0.0010028800066801998,1.5730514416796944,-0.003542660126089947,5666646.524048754,4198806.091932985
2.600000000000001,-0.06934595866303017,27.738974619747687,-0.04256927306722908,19.531995236033257,1.5694043668651134,-0.001044146884910133,1.5729757869652874,-0.003571420100173972,5663768.416382738,4195927.984266969
2.700000000000001,-0.07360906173209401,29.768500212904456,-0.042631030690638394,20.295255931567684,1.5692958214817132,-0.001085453834001574,1.5728968653707391,-0.0036010438890259344,5660890.308716723,4193049.8766009538
2.800000000000001,-0.07785962422746177,31.87444250495359,-0.04250562495367754,21.05942292049133,1.5691831414223647,-0.0011268005934842173,1.5728146901372573,-0.003631548714892574,5658012.2008065665,4190171.7686907975
2.9000000000000012,-0.08207818687151845,34.05689228435052,-0.04218562644056674,21.824497793969286,1.5690663227306962,-0.001168186916683836,1.5727292727118976,-0.0036629499812013133,5655134.093140551,4187293.661024782
3.0000000000000013,-0.08624454542945283,36.315940527135524,-0.04166358557934377,22.59048242785009,1.5689453614768285,-0.0012096125386780938,1.5726406228817038,-0.003695261404875305,5652255.985474535,4184415.5533587663
3.1000000000000014,-0.09033774896610068,38.65167835471308,-0.04093203536647854,23.357378275775527,1.568820253753704,-0.0012510772312447674,1.5725487492193078,-0.0037284954656038316,5649377.877564379,4181537.44544861
3.2000000000000015,-0.09433589287765327,41.06419703402638,-0.039981439115525985,24.125186793132983,1.5686909990754137,-0.0012925467829020235,1.572453574171083,-0.0037625750956693516,5646499.769898363,4178659.3377825944
3.3000000000000016,-0.09821599792147301,43.553588006052955,-0.03880105043819729,24.893909720265757,1.5685576023526309,-0.0013339672278267723,1.5723549818817446,-0.0037973795291137424,5643621.662720629,4175781.23060486
3.4000000000000017,-0.10195433314023764,46.11994290019582,-0.03738335218764631,25.66354894142864,1.5684200685355978,-0.0013753381703310713,1.5722529969472543,-0.0038329284116565,5640743.554810473,4172903.1226947038
3.5000000000000018,-0.10552641587827433,48.76335347782331,-0.03572082738036688,26.43410577627491,1.568278402611834,-0.0014166592376387392,1.5721476418702007,-0.0038692392583667967,5637865.4469003165,4170025.0147845475
3.600000000000002,-0.10890701149325326,51.48391167496027,-0.03380595614978932,27.205581971369625,1.5681326096024704,-0.0014579300936351993,1.5720389371821935,-0.00390632757972309,5634987.339234301,4167146.907118532
3.700000000000002,-0.1120701326515003,54.28170960248919,-0.03163121158247043,27.97797927528917,1.5679826945686601,-0.0014991503381018452,1.5719269015871014,-0.003944207018441226,5632109.231568285,4164268.7994525163
3.800000000000002,-0.1149890394820219,57.156839503752856,-0.029189068305215907,28.751299012636675,1.5678286626065367,-0.0015403196212333218,1.571811552516147,-0.003982889909610154,5629231.12390227,4161390.6917865006
3.900000000000002,-0.11763623887053454,60.1093938115423,-0.026471993885126454,29.525543077894433,1.5676705188495017,-0.001581437570350479,1.5716929059610132,-0.004022387111511483,5626353.015992113,4158512.5838763444
4.000000000000002,-0.11998348397435527,63.13946510567589,-0.023472451038207304,30.300712941335895,1.5675082684741775,-0.0016225037532434866,1.5715709767639754,-0.004062708289797934,5623474.908326098,4155634.4762103288
4.100000000000001,-0.12200177451447754,66.24714611314583,-0.02018290540122271,31.076810074699374,1.5673419166875746,-0.001663517866027581,1.5714457789914082,-0.004103862303833639,5620596.800660082,4152756.368544313
4.200000000000001,-0.12366132237453742,69.43252975098659,-0.016595478600598873,31.853836378407504,1.5671714692916494,-0.0017044739592511889,1.5713173151274151,-0.004145845835765716,5617718.692749926,4149878.260634157
4.300000000000001,-0.12493147905242034,72.69570911226904,-0.012701566778829207,32.63179361282459,1.5669969338717362,-0.0017453541991327818,1.571185565777224,-0.004188631905487794,5614840.58483977,4147000.1527240006
4.4,-0.12578079815204074,76.03677740931003,-0.008493190996204103,33.41068297040988,1.5668183187707472,-0.0017861510098897092,1.5710505326374045,-0.004232213866657286,5611962.476929613,4144122.0448138444
4.5,-0.12617704699626384,79.45582804506641,-0.003962488442231096,34.190506357563784,1.5666356328949824,-0.0018268587576466488,1.5709122212008773,-0.004276588305894835,5609084.3687753165,4141243.9366595475
4.6,-0.12608720425192305,82.952954570581,0.0008984274434077812,34.97126525514584,1.5664488857637409,-0.0018674713124156445,1.5707706363477065,-0.004321750583965667,5606206.26086516,4138365.8287493913
4.699999999999999,-0.1254774976842893,86.52825069939703,0.006097065676337379,35.75296128816031,1.5662580868905862,-0.001907988731546554,1.5706257936307177,-0.004367706740131538,5603328.152955004,4135487.720839235
4.799999999999999,-0.1243134019181047,90.18181030774473,0.01164095766184618,36.535596083476904,1.5660632458300947,-0.0019484106049139326,1.5704777071878337,-0.004414461357739041,5600450.045044848,4132609.6129290788
4.899999999999999,-0.12255948679215256,93.91372743471945,0.017539151259521338,37.319171269747216,1.5658643746769856,-0.0019887115310910078,1.570326349853517,-0.004461975176531352,5597571.936890551,4129731.504774782
4.999999999999998,-0.12017948927175053,97.7240962824769,0.023799975204020385,38.103688477574586,1.5656614868928744,-0.0020288778411104193,1.5701717160797704,-0.00451022918689592,5594693.828736254,4126853.396620485
5.099999999999998,-0.11713639584278628,101.61301120210948,0.030430934289642532,38.88914919632569,1.565454595976795,-0.0020689091607940177,1.5700138224535203,-0.004559226476725353,5591815.720581957,4123975.288466188
5.1999999999999975,-0.11339244325939461,105.58056670810845,0.037439525833916694,39.675555059989684,1.5652437154670291,-0.0021088050976575006,1.569852684931172,-0.004608969464142909,5588937.612671801,4121097.180556032
5.299999999999997,-0.10890908675142348,109.62685746421923,0.04483356507971133,40.462907561107734,1.5650288594790442,-0.002148559879849551,1.56968831085055,-0.004659451371505696,5586059.504517504,4118219.072401735
5.399999999999997,-0.10364700866913988,113.75197832657736,0.05262078082283596,41.25120862358138,1.5648100425868172,-0.0021881689222707987,1.569520709569678,-0.004710666982860712,5583181.396363207,4115340.964247438
5.4999999999999964,-0.0975661321275063,117.95602427227891,0.06080876541633585,42.04045945701546,1.564587279624318,-0.0022276296249922685,1.569349893435359,-0.004762613811040817,5580303.28820891,4112462.8560931413
5.599999999999996,-0.09062553790980525,122.23909047117102,0.0694059421770105,42.83066198892121,1.564360587062112,-0.0022669256220617788,1.5691758549599466,-0.004815267897834596,5577425.179566332,4109584.747450563
5.699999999999996,-0.082783556235991,126.6012722143763,0.07841981673814256,43.621817432052666,1.5641299815360843,-0.0023060552602776753,1.5689986086603538,-0.004868627124269498,5574547.071412035,4106706.6392962663
5.799999999999995,-0.07399773045926558,131.04266498612546,0.08785825776725423,44.413927717491596,1.563895480464045,-0.0023450107203922175,1.568818160312404,-0.004922679848359035,5571668.962769457,4103828.530653688
5.899999999999995,-0.06422483604578745,135.56336440657736,0.09772894413478131,45.20699420451916,1.5636571017678538,-0.0023837869619116503,1.5686345198972702,-0.004977418129416433,5568790.854126879,4100950.42201111
5.999999999999995,-0.053420887248431435,140.1634662463014,0.10803948797356012,46.00101839724039,1.563414863792762,-0.002422379750917762,1.5684476985886697,-0.005032834795907659,5565912.745972582,4098072.313856813
6.099999999999994,-0.041541105278860985,144.84306645516185,0.11879781969570452,46.7960020886046,1.563168785863407,-0.002460779293550828,1.5682577004338618,-0.0050889145704549055,5563034.637330004,4095194.205214235
6.199999999999994,-0.028539940565826732,149.60226114816908,0.13001164713034252,47.59194693007243,1.562918887950164,-0.002498979132427222,1.5680645342941824,-0.005145646344018262,5560156.528443285,4092316.0963275163
6.299999999999994,-0.014371111808565517,154.44114656248433,0.14168828757261215,48.388854143152685,1.5626651900733541,-0.0025369787681003846,1.5678682168996667,-0.005203026826312573,5557278.4195565665,4089437.9874407975
6.399999999999993,0.0010124478974236385,159.35981910070527,0.15383559705989155,49.18672538220933,1.5624077132227754,-0.002574768505787744,1.56766875336381,-0.0052610401410346785,5554400.310913988,4086559.8787982194
6.499999999999993,0.017658557277678545,164.35837533103614,0.16646109380254906,49.98556230330882,1.56214647883327,-0.0026123438950538024,1.5674661556258973,-0.005319676792627348,5551522.20227141,4083681.7701556413
6.5999999999999925,0.03561580143613036,169.43691195865026,0.17957244158451807,50.78536627614111,1.5618815090783593,-0.002649697549106949,1.5672604323753037,-0.005378923296944338,5548644.0933846915,4080803.6612689225
6.699999999999992,0.0549335390081766,174.59552588350175,0.19317737572046242,51.58613924851499,1.5616128270221148,-0.002686820562446216,1.567051590794971,-0.0054387637728561256,5545765.984497973,4077925.5523822038
6.799999999999992,0.07566184328688082,179.83431412841355,0.20728304278704213,52.38788244911801,1.561340455709179,-0.0027237131293567983,1.566839649193074,-0.0054991934838950485,5542887.875611254,4075047.443495485
6.8999999999999915,0.09785156094528644,185.15337388248196,0.22189717658405617,53.19059754068405,1.5610644191656577,-0.0027603654352136298,1.5666246141313283,-0.005560194965670506,5540009.766480395,4072169.3343646256
6.999999999999991,0.12155425750070582,190.5528024723824,0.23702696555419384,53.994285899004396,1.5607847415650191,-0.0027967760063857144,1.5664065022225677,-0.005621760657548602,5537131.657349535,4069291.2252337663
7.099999999999991,0.1468222730564908,196.03269737693873,0.2526801555578496,54.79894904556329,1.5605014481779695,-0.0028329338704960816,1.5661853192996964,-0.005683871121726858,5534253.5484628165,4066413.1163470475
7.19999999999999,0.17370865562706145,201.59315622727277,0.26886382570570655,55.60458850334033,1.5602145643446903,-0.0028688383327920572,1.5659610832002342,-0.005746518855543892,5531375.439576098,4063535.0074603288
7.29999999999999,0.20226718370074243,207.23427682142668,0.28558528073680983,56.4112059415391,1.5599241158916264,-0.00290448453063928,1.5657338071022049,-0.005809691210578505,5528497.330201098,4060656.8980853288
7.39999999999999,0.23255241552933498,212.95615709561446,0.30285231828592535,57.2188027418777,1.5596301299946098,-0.0029398589701663115,1.5655034951429458,-0.005873365148336029,5525619.221314379,4057778.78919861
7.499999999999989,0.26461961296804454,218.7588951388058,0.32067197438709566,58.02738043191336,1.5593326339998057,-0.002974959948040336,1.5652701647018168,-0.005937530702011085,5522741.11242766,4054900.6803118913
7.599999999999989,0.29852473939555374,224.64258920738072,0.3390512642750919,58.83694068574914,1.5590316554370607,-0.003009785627450503,1.5650338329019142,-0.006002177464853542,5519863.003296801,4052022.571181032
7.699999999999989,0.33432448842733714,230.6073377108204,0.3579974903178338,59.64748503439655,1.558727222555826,-0.0030443288123468515,1.5647945114370283,-0.006067288881202337,5516984.893921801,4049144.461806032
7.799999999999988,0.3720762530998104,236.65323919736366,0.3775176467247327,60.45901486543274,1.5584193638883823,-0.0030785866744361496,1.5645522167772525,-0.006132852888870222,5514106.784546801,4046266.352431032
7.899999999999988,0.41183815438302074,242.78039233962323,0.3976190128321032,61.27153142259566,1.5581081087755286,-0.003112551128537798,1.5643069601658917,-0.006198851390363025,5511228.675171801,4043388.243056032
7.999999999999988,0.4536690272258643,248.9888959782466,0.4183087284284355,62.085036386233654,1.557793487195127,-0.0031462158040168704,1.564058754860234,-0.006265267665107155,5508350.565796801,4040510.133681032
8.099999999999987,0.49762841235861244,255.27884909305047,0.4395938513274816,62.899531148038626,1.55747552971835,-0.00317957476776968,1.5638076150130062,-0.006332085294656231,5505472.456421801,4037632.024306032
8.199999999999987,0.5437765224217989,261.65035086128086,0.46148110063186465,63.71501768230412,1.5571542670042704,-0.0032126271407960463,1.5635535597364905,-0.006399292732220063,5502594.34655852,4034753.9144427506
8.299999999999986,0.5921742652700219,268.1035005706217,0.4839774284822307,64.53149709340853,1.5568297302615488,-0.003245367427216293,1.5632966037706326,-0.006466873509083815,5499716.236451098,4031875.8043353288
8.399999999999986,0.6428832257309007,274.63839763382464,0.5070896046087877,65.34897063202929,1.5565019510315954,-0.0032777922995345116,1.5630367642151322,-0.0065348131835367695,5496838.1265878165,4028997.6944720475
8.499999999999986,0.6959656989461146,281.25514163246794,0.5308247321521389,66.1674399864328,1.556170961791966,-0.0033098923962944387,1.562774052624946,-0.006603090832980163,5493960.016724535,4026119.5846087663
8.599999999999985,0.7514846555255188,287.95383230258994,0.5551895657940419,66.98690670122014,1.5558367954662795,-0.003341663256863428,1.5625084854629527,-0.006671689996673225,5491081.906861254,4023241.474745485
8.699999999999985,0.8095037152783573,294.73456953485095,0.580190597528385,67.80737232261026,1.5554994850732915,-0.0033731039298807845,1.562240082552799,-0.006740597479507393,5488203.796753832,4020363.364638063
8.799999999999985,0.8700871413878379,301.59745331639425,0.6058342610948066,68.62883781543289,1.5551590637252952,-0.003404213479961715,1.5619688638225726,-0.006809800097277385,5485325.68664641,4017485.2545306413
8.899999999999984,0.9332999161543487,308.54258380382896,0.6321277476651073,69.45130487434682,1.5548155659108043,-0.003434978144909898,1.56169483771318,-0.006879271802375797,5482447.576783129,4014607.14466736
8.999999999999984,0.9992077015291077,315.57006130882434,0.6590778537475891,70.27477504995358,1.554469026960738,-0.003465389500662639,1.5614180181398667,-0.006948991179128727,5479569.466675707,4011729.034559938
9.099999999999984,1.0678767886153728,322.6799862836953,0.6866908708626526,71.09924974870985,1.5541194822946174,-0.0034954466612053775,1.561138425723071,-0.00701894342845355,5476691.356324145,4008850.9242083756
9.199999999999983,1.1393740986454235,329.87245932154434,0.7149731003005059,71.92473037849035,1.553766967533949,-0.003525147606683587,1.5608560802634235,-0.007089112729474545,5473813.246216723,4005972.8141009538
9.299999999999983,1.213767192865153,337.14758115638864,0.7439309421972944,72.75121834844275,1.5534115187398336,-0.003554487941152122,1.5605709995619446,-0.007159480822110931,5470935.136109301,4003094.703993532
