time[s],x[m],y[m],vx[m/s],vy[m/s],theta[rad],theta_dot[rad/s],gamma[rad],alpha[rad],mass[kg],mass_propellant[kg]
0.1,-0.00016345080686389234,1.6027092332293806,-0.0016345080686389233,1.0270923322938057,1.5707924473721637,-3.879422732853337e-05,1.5723877189584183,-0.0015952715862546096,5735241.4176034415,4267400.9854876725
0.2,-0.0004923758250951546,1.8082453416693385,-0.003289250182312623,2.0553610843995784,1.5707846240252388,-7.823346924913196e-05,1.5723966525961914,-0.0016120285709526616,5731883.620972582,4264043.188856813
0.30000000000000004,-0.0009857568162293683,2.1167262349192626,-0.004933809911342136,3.084808932499243,1.5707728456188392,-0.00011778406399467448,1.5723957145729854,-0.001622868954146206,5728525.824341723,4260685.392225954
0.4,-0.001641792808185097,2.528270076652995,-0.006560359919557285,4.115438417337324,1.5707571006838181,-0.00015744935021079677,1.5723904107532587,-0.0016333100694405633,5725168.027710863,4257327.595595094
0.5,-0.002457881142476318,3.042995271030367,-0.00816088334291221,5.147251943773717,1.5707373777790803,-0.00019722904737885365,1.572381809027728,-0.0016444312486476598,5721810.231080004,4253969.798964235
0.6,-0.0034306144658461345,3.661020491017344,-0.009727333233698166,6.18025219986977,1.5707136654744451,-0.0002371230463524007,1.5723702634056826,-0.0016565979312375134,5718452.434449145,4250612.002333376
0.7,-0.0045557779609487325,4.382464636819301,-0.01125163495102598,7.2144414580195715,1.5706859523273615,-0.00027713147083696264,1.5723559244288754,-0.0016699721015138724,5715094.6383065665,4247254.2061907975
0.7999999999999999,-0.005828345463447356,5.207446878183067,-0.012725675024986236,8.24982241363766,1.5706542268864476,-0.0003172544091399772,1.5723388648391934,-0.00168463795274576,5711736.841675707,4243896.409559938
0.8999999999999999,-0.007242475570224927,6.136086640820607,-0.014141301067775704,9.2863976263754,1.5706184776947072,-0.0003574919174044656,1.572319122900118,-0.0017006452054109111,5708379.045044848,4240538.612929079
0.9999999999999999,-0.008791508258675852,7.168503578729995,-0.015490326884509244,10.324169379093881,1.5705786932801362,-0.0003978441457088514,1.5722967201623317,-0.001718026882195467,5705021.24890227,4237180.816786501
1.0999999999999999,-0.01046782017537767,8.30481763058297,-0.016763119167018184,11.363140518529757,1.5705348654833964,-0.000438277967397479,1.5722715445816817,-0.001736679098285343,5701663.4527596915,4233823.0206439225
1.2,-0.012262905381805545,9.545148949999986,-0.017950852064278742,12.403313194170144,1.570486987472968,-0.00047878010428208963,1.572243588445891,-0.0017566009729228504,5698305.656128832,4230465.224013063
1.3,-0.014167352682453156,10.889617962008654,-0.019044473006476107,13.444690120086674,1.5704350542101726,-0.0005193326279559305,1.5722128310132084,-0.0017777768030358132,5694947.859986254,4227107.427870485
1.4000000000000001,-0.01617085349151593,12.338345335294541,-0.020035008090627755,14.487273732858874,1.5703790622018126,-0.0005599200836007239,1.5721792643777461,-0.001800202175933574,5691590.063843676,4223749.631727907
1.5000000000000002,-0.018262242545071673,13.89145202471336,-0.020913890535557405,15.531066894188182,1.570319008485823,-0.0006005371598968265,1.5721429102612534,-0.0018239017754304587,5688232.2672128165,4220391.8350970475
1.6000000000000003,-0.02042950543090801,15.549059215448978,-0.021672628858363397,16.57607190735618,1.5702548904036442,-0.0006411808217887205,1.572103790748358,-0.0018489003447137442,5684874.470581957,4217034.038466188
1.7000000000000004,-0.02265963691224606,17.311288351434456,-0.022301314813380487,17.62229135985477,1.5701867088861297,-0.0006818151751459645,1.5720618434324638,-0.0018751345463341451,5681516.673951098,4213676.241835329
1.8000000000000005,-0.02493860884028102,19.178261093455102,-0.02278971928034958,18.669727420206463,1.5701144691712972,-0.0007223971483250049,1.5720170038539731,-0.0019025346826759826,5678158.87780852,4210318.445692751
1.9000000000000006,-0.027251549568026678,21.150099418024173,-0.023129407277456597,19.7183832456907,1.5700381765670444,-0.0007629260425270123,1.5719693132604384,-0.0019311366933940644,5674801.08117766,4206960.649061891
2.0000000000000004,-0.029582743565041092,23.22692553326723,-0.023311939970144125,20.768261152430586,1.5699578364498559,-0.0008034011718845389,1.5719188054659974,-0.0019609690161415116,5671443.284546801,4203602.852431032
2.1000000000000005,-0.031915631148564376,25.408861893290698,-0.02332887583523281,21.81936360023466,1.5698734542602724,-0.0008438218958348706,1.571865508617666,-0.001992054357393691,5668085.488404223,4200245.056288454
2.2000000000000006,-0.03423280760781018,27.696031212579626,-0.023171764592458028,22.8716931928893,1.5697850355125977,-0.000884187476746859,1.5718094462202543,-0.0020244107076565765,5664727.691773363,4196887.259657594
2.3000000000000007,-0.036516012272442895,30.088556452232474,-0.022832046646327157,23.92525239652848,1.5696925860411999,-0.000924494713978732,1.5717506339569216,-0.002058047915721728,5661369.895630785,4193529.4635150163
2.400000000000001,-0.03874610750924773,32.58656083435066,-0.02230095236804835,24.98004382118179,1.569596112484146,-0.0009647355705391745,1.571689077288172,-0.0020929648040259874,5658012.099488207,4190171.667372438
2.500000000000001,-0.040903109628189376,35.190167856511486,-0.021570021189416453,26.03607022160828,1.5694956215524418,-0.0010049093170418893,1.5716247934594474,-0.002129171907005567,5654654.303345629,4186813.87122986
2.600000000000001,-0.04296618884506897,37.89950126380863,-0.02063079216879591,27.093334072971437,1.5693911200251722,-0.0010450152726969298,1.5715577977945796,-0.002166677769407377,5651296.50671477,4183456.0745990006
2.700000000000001,-0.044913323706943516,40.714685020838985,-0.019471348618745464,28.151837570303567,1.569282622839205,-0.0010849718596739244,1.5714879813082185,-0.0022053584690135963,5647938.7105721915,4180098.2784564225
2.800000000000001,-0.0467213993002627,43.63584341106967,-0.018080755933191882,29.211583902306838,1.5691701508113434,-0.0011247202786151072,1.5714152851398016,-0.002245134328458187,5644580.9136971915,4176740.4815814225
2.9000000000000012,-0.04836645733163792,46.6631009097478,-0.016450580313752215,30.272574986781233,1.5690537248435439,-0.0011642596779950591,1.5713397420379558,-0.0022860171944119045,5641223.117554613,4173382.6854388444
3.0000000000000013,-0.04982369839539795,49.796582297474174,-0.014572410637600322,31.334813877263766,1.5689333659297207,-0.0012035891382331694,1.5712613817221135,-0.0023280157923928346,5637865.321412035,4170024.8892962663
3.1000000000000014,-0.05106748509206709,53.03641258965557,-0.012437866966691413,32.398302921813986,1.5688090951460354,-0.001242707836852135,1.5711802316674963,-0.002371136521460926,5634507.525269457,4166667.093153688
3.2000000000000015,-0.05207134454450684,56.382717065145904,-0.010038594524397464,33.46304475490337,1.5686809336580256,-0.001281614880098203,1.5710963172559196,-0.0024153835978939497,5631149.728394457,4163309.296278688
3.3000000000000016,-0.05280797092032165,59.83562123815137,-0.0073662637581480995,34.52904173005463,1.5685489027248174,-0.0013203093320813132,1.571009662099826,-0.002460759375008559,5627791.931763598,4159951.4996478288
3.4000000000000017,-0.05324922390711836,63.395250915293374,-0.004412529867967115,35.59629677142008,1.5684130238005212,-0.0013587892429621604,1.5709202871572259,-0.002507263356704703,5624434.134888598,4156593.7027728288
3.5000000000000018,-0.0533661172806019,67.06173212484424,-0.0011689337348354495,36.66481209550872,1.5682733188656703,-0.0013970493485092358,1.5708282084183833,-0.002554889552712991,5621076.338013598,4153235.9058978288
3.600000000000002,-0.05312868719519138,70.83519115962196,0.0023743008541052234,37.73459034777709,1.5681298135667692,-0.001435052989012711,1.5707334057235642,-0.002603592156795065,5617718.541138598,4149878.1090228288
3.700000000000002,-0.05250610778647732,74.71575456304278,0.006225794087140595,38.80563403420829,1.567982534600097,-0.0014727896667217743,1.5706358914821212,-0.0026533568820241715,5614360.744263598,4146520.3121478288
3.800000000000002,-0.051466698873481834,78.7035491578761,0.010394089129954844,39.87794594833311,1.5678315096247755,-0.001510249753215216,1.5705356792452951,-0.0027041696205196697,5611002.947632738,4143162.5155169694
3.900000000000002,-0.049977882301851975,82.79870200376703,0.0148881657162986,40.95152845890932,1.5676767683729078,-0.0015474125186758017,1.5704327710102743,-0.002756002637366528,5607645.150757738,4139804.7186419694
4.000000000000002,-0.04800623400631498,87.00134044028408,0.019716482955369957,42.02638436517051,1.5675183415390745,-0.0015842683383335194,1.570327181475672,-0.002808839936597529,5604287.353882738,4136446.9217669694
4.100000000000001,-0.04551748724013129,91.31159203011238,0.02488746766183687,43.10251589828297,1.5673562608207379,-0.0016208071833675862,1.5702189251194398,-0.002862664298701967,5600929.557251879,4133089.12513611
4.200000000000001,-0.04247650858502106,95.72958461637538,0.030409786551102276,44.17992586262993,1.5671905595810192,-0.0016570123971867245,1.5701080100728826,-0.002917450491863427,5597571.760376879,4129731.32826111
4.300000000000001,-0.03884733738006938,100.2554462657863,0.03629171204951681,45.258616494109276,1.5670212720616745,-0.0016928751934465374,1.5699944528738126,-0.002973180812138043,5594213.96374602,4126373.5316302506
4.4,-0.0345931787131971,104.88930531172538,0.0425415866687228,46.338590459390794,1.5668484336698807,-0.001728383917939141,1.569878267477702,-0.0030298338078214027,5590856.16687102,4123015.7347552506
4.5,-0.029676421101597808,109.63129036883738,0.04916757611599293,47.41985057111997,1.566672080697723,-0.001763529721577367,1.5697594707545615,-0.003087390056838446,5587498.36999602,4119657.9378802506
4.6,-0.02405861383474888,114.48153027604555,0.05617807266848925,48.50239907208169,1.5664922509909993,-0.0017982970672376262,1.5696380738296547,-0.0031458228386553877,5584140.57312102,4116300.1410052506
4.699999999999999,-0.017700484444102813,119.44015416837622,0.0635812939064607,49.58623892330678,1.5663089836830273,-0.0018326730797191659,1.56951409082698,-0.0032051071439527234,5580782.77624602,4112942.3441302506
4.799999999999999,-0.010561930513112435,124.5072913912694,0.07138553930990377,50.67137222893175,1.5661223195364373,-0.0018666414659007351,1.5693875334478147,-0.0032652139113773515,5577424.97937102,4109584.5472552506
4.899999999999999,-0.002602087611953026,129.6830715581198,0.07959842901159409,51.75780166850385,1.5659322995284983,-0.0019002000793893982,1.5692584259627165,-0.0033261264342181462,5574067.18249602,4106226.7503802506
4.999999999999998,0.006220685689542791,134.96762455053866,0.08822773301495816,52.84552992418854,1.5657389653600704,-0.0019333416842781885,1.5691267882139157,-0.0033878228538453126,5570709.38562102,4102868.9535052506
5.099999999999998,0.015948858971113675,140.36108046117414,0.09728173281570884,53.93455910635472,1.5655423608029373,-0.001966045571330591,1.5689926293339143,-0.003450268530976963,5567351.58874602,4099511.1566302506
5.1999999999999975,0.026625668411191968,145.8635696800962,0.1067680944007829,55.024892189220644,1.5653425304493715,-0.001998303535658152,1.5688559693283142,-0.0035134388789426207,5563993.79187102,4096153.3597552506
5.299999999999997,0.03829510029983308,151.47522283760063,0.1166943188864111,56.11653157504439,1.5651395195085729,-0.0020301094079873245,1.568716829944259,-0.0035773104356862095,5560635.994507738,4092795.5623919694
5.399999999999997,0.05100192261758819,157.19617081882583,0.12706822317755107,57.20947981225195,1.564933374725694,-0.0020614478287887938,1.5685752261199777,-0.003641851394283746,5557278.197632738,4089437.7655169694
5.4999999999999964,0.064791632903407,163.02654476396003,0.13789710285818815,58.30373945134183,1.5647241433542127,-0.0020923137148130904,1.5684311809735902,-0.003707037619377518,5553920.400269457,4086079.968153688
5.599999999999996,0.07971046732717313,168.96647605411158,0.1491883442376612,59.39931290151535,1.564511873571753,-0.0021226978245971213,1.5682847147366592,-0.003772841164906282,5550562.603394457,4082722.171278688
5.699999999999996,0.09580540156349998,175.01609635472641,0.16094934236326847,60.49620300614831,1.5642966146857404,-0.0021525888601251434,1.5681358463907757,-0.0038392317050353064,5547204.805787035,4079364.3736712663
5.799999999999995,0.11312414817494529,181.17553752939932,0.173187466114453,61.59441174672921,1.5640784172907665,-0.0021819739497398365,1.567984594288563,-0.0039061769977966065,5543847.008423754,4076006.576307985
5.899999999999995,0.13171514925305947,187.44493169770092,0.18591001078114172,62.69394168301612,1.5638573332958412,-0.0022108399492515923,1.5678309770199534,-0.003973643724112241,5540489.211548754,4072648.779432985
5.999999999999995,0.1516275421935568,193.82441126429507,0.19912392940497345,63.79479566594153,1.5636334153546612,-0.0022391794118000984,1.5676750175930054,-0.004041602238344266,5537131.414185473,4069290.9820697038
6.099999999999994,0.1729111542843279,200.3141088903783,0.2128361209077109,64.8969762608322,1.5634067169599344,-0.002266983947266767,1.5675167385905915,-0.004110021630657101,5533773.6168221915,4065933.1847064225
6.199999999999994,0.19561647220630127,206.91415747945362,0.22705317921973356,66.00048589075327,1.5631772919698632,-0.0022942499007113345,1.5673561660074096,-0.004178874037546354,5530415.81921477,4062575.3870990006
6.299999999999994,0.21979467734578767,213.62469016309535,0.24178205139486403,67.1053268364173,1.5629451956515306,-0.0023209631833267827,1.5671933191567862,-0.004248123505255608,5527058.021851488,4059217.5897357194
6.399999999999993,0.24549758360383506,220.44584035903227,0.2570290625804737,68.21150195936927,1.5627104834777545,-0.002347121737760338,1.567028225540518,-0.004317742062763363,5523700.224488207,4055859.792372438
6.499999999999993,0.27277763694680834,227.37774171352794,0.27280053342973265,69.31901354495679,1.5624732113554414,-0.0023727212231305916,1.5668609112264251,-0.004387699870983752,5520342.426392504,4052501.994276735
6.5999999999999925,0.30168792593776383,234.42052813059402,0.2891028899095548,70.42786417066091,1.562233436114669,-0.0023977524077236816,1.5666913994415508,-0.004457963326881753,5516984.628785082,4049144.196669313
6.699999999999992,0.3322821668030083,241.57433375770432,0.30594240865244476,71.53805627110306,1.5619912153958748,-0.002422207187940978,1.5665197143255611,-0.00452849892968632,5513626.83117766,4045786.3990618913
6.799999999999992,0.36461475794939174,248.83929300055985,0.3233259114638341,72.64959242855522,1.561746609154296,-0.0024460624157879255,1.5663458713140679,-0.004599262159771911,5510269.033570238,4042428.6014544694
6.8999999999999915,0.3987406821710994,256.2155404943323,0.34125924221707704,73.7624749377243,1.5614996776742325,-0.0024693148006348846,1.56616989841449,-0.00467022074025758,5506911.2359628165,4039070.8038470475
6.999999999999991,0.43471548817710415,263.70321114746184,0.35974806006004734,74.8767065312953,1.5612504814160926,-0.002491962581399725,1.5659918247184714,-0.004741343302378853,5503553.438355395,4035713.0062396256
7.099999999999991,0.4725952807040506,271.3024401274183,0.37879792526946443,75.99228979956477,1.5609990810367402,-0.0025140037935228463,1.5658116791553922,-0.004812598118651978,5500195.6402596915,4032355.2081439225
7.19999999999999,0.5124367307177884,279.01336281735945,0.3984145001373774,77.10922689941118,1.5607455379039654,-0.0025354313277492365,1.5656294878734902,-0.004883949969524792,5496837.84289641,4028997.4107806413
7.29999999999999,0.5542970566448983,286.8361148890565,0.41860325927109876,78.22752071697046,1.5604899139260429,-0.0025562397792249884,1.5654452782120285,-0.004955364285985642,5493480.045288988,4025639.6131732194
7.39999999999999,0.5982340608516779,294.7708322304567,0.43937004206779545,79.34717341400201,1.5602322726579327,-0.002576412681101532,1.565259071557974,-0.005026798900041207,5490122.247193285,4022281.8150775163
7.499999999999989,0.6443060619334527,302.8176509750575,0.4607200108177492,80.46818744600854,1.5599726780452214,-0.0025959461271119135,1.5650708967683091,-0.0050982187230876885,5486764.449830004,4018924.017714235
7.599999999999989,0.6925718484805462,310.97670753129046,0.4826578654709349,81.59056556232963,1.5597111936323265,-0.002614844128949017,1.5648807870244485,-0.005169593392122085,5483406.652222582,4015566.220106813
7.699999999999989,0.7430907093264758,319.24813855369894,0.505188608459296,82.7143102240846,1.5594478835458507,-0.002633100864757421,1.5646887702485346,-0.005240886702683856,5480048.854126879,4012208.42201111
7.799999999999988,0.7959224456215708,327.63208092862914,0.5283173629509491,83.83942374930189,1.559182813054307,-0.0026507049154374128,1.5644948716269294,-0.005312058572622291,5476691.056519457,4008850.624403688
7.899999999999988,0.8511273219952582,336.1286718036723,0.5520487637368748,84.96590875043172,1.558916047744127,-0.002667653101799536,1.5642991209881227,-0.005383073243995673,5473333.258423754,4005492.826307985
7.999999999999988,0.9087660847430126,344.7380485734028,0.5763876274775438,86.09376769730511,1.558647654228848,-0.002683935152790562,1.564101544679814,-0.0054538904509660036,5469975.461060473,4002135.0289447038
8.099999999999987,0.9688999345811314,353.4603488942601,0.6013384983811885,87.22300320857322,1.558377699806285,-0.0026995442256313633,1.5639021710200687,-0.005524471213783633,5466617.66296477,3998777.2308490006
8.199999999999987,1.031590496591727,362.2957106556714,0.626905620105957,88.3536176141132,1.5581062521110294,-0.0027144769525559694,1.5637010304522236,-0.005594778341194262,5463259.8648690665,3995419.4327532975
8.299999999999986,1.0968997983295932,371.24427200959434,0.6530930173786605,89.48561353922904,1.5578333788933614,-0.002728732176679454,1.5634981545389643,-0.005664775645602971,5459902.066773363,3992061.6346575944
8.399999999999986,1.1648902297890154,380.30617134155466,0.6799043145942208,90.61899331960316,1.5575591474356023,-0.0027423145775897833,1.563293577844732,-0.005734430409129798,5456544.26867766,3988703.8365618913
8.499999999999986,1.2356245703932596,389.48154727093475,0.7073434060424428,91.7537592938011,1.557283625459958,-0.00275521975644219,1.5630873304629482,-0.0058037050029902115,5453186.470581957,3985346.038466188
8.599999999999985,1.309165963099511,398.77053869528874,0.7354139270625136,92.88991424353993,1.5570068808471302,-0.0027674461282767328,1.562879444015252,-0.005872563168121792,5449828.672486254,3981988.240370485
8.699999999999985,1.3855779391296,408.1732847760522,0.764119760300889,94.02746080763454,1.556728982502035,-0.0027789834509527288,1.562669946125525,-0.005940963623489948,5446470.874390551,3978630.442274782
8.799999999999985,1.46492437620457,417.6899248948571,0.7934643707497002,95.16640118804902,1.5564499997371715,-0.0027898276486343536,1.5624588676145914,-0.006008867877419943,5443113.076294848,3975272.6441790788
8.899999999999984,1.5472694837747163,427.32059868322835,0.8234510757014615,96.30673788371244,1.556170002236394,-0.002799975007775479,1.5622462395648171,-0.006076237328423106,5439755.278199145,3971914.8460833756
8.999999999999984,1.6326778079750137,437.0654460082409,0.8540832420029748,97.44847325012545,1.5558890604910411,-0.002809417453528178,1.5620320912403656,-0.00614303074932443,5436397.4801034415,3968557.0479876725
9.099999999999984,1.7212141227764752,446.9246070317333,0.8853631480146149,98.59161023492393,1.5556072436559893,-0.002818168350518123,1.5618164617961083,-0.006209218140118988,5433039.682007738,3965199.2498919694
9.199999999999983,1.8129434559221693,456.8982221518505,0.9172933314569413,99.7361512011722,1.5553246204534552,-0.0028262320253413164,1.5615993860911457,-0.0062747656376904715,5429681.883912035,3961841.4517962663
9.299999999999983,1.9079311312725082,466.98643198865983,0.9498767535033901,100.88209836809337,1.5550412604746677,-0.0028335997878743266,1.5613808933362163,-0.006339632861548594,5426324.085816332,3958483.653700563
