time[s],x[m],y[m],vx[m/s],vy[m/s],theta[rad],theta_dot[rad/s],gamma[rad],alpha[rad],mass[kg],mass_propellant[kg]
0.1,-0.0002516584358011672,0.06392374098382646,-0.002516584358011672,0.6392374098382645,1.5707916103444157,-4.716450480741828e-05,1.5747331604626995,-0.0039415501182837875,6939072.871166295,4178687.390534152
0.2,-0.0008063195939850977,0.19183947505371185,-0.005546611581839303,1.2791573406988541,1.5707812028561716,-0.00010407488244077614,1.5751324445210049,-0.00435124166483325,6935795.5813184045,4175410.1006862605
0.30000000000000004,-0.0016639857291056808,0.3838235425548402,-0.008576661351205831,1.919840675011283,1.5707650746825215,-0.0001612817365016368,1.575263678907643,-0.004498604225121605,6932518.298605849,4172132.817973705
0.4,-0.0028227583729581386,0.6399526716311816,-0.011587726438524579,2.561291290763415,1.570743214379303,-0.00021860303218579707,1.5753204695277132,-0.004577255148410231,6929241.017884969,4168855.537252825
0.5,-0.004279331207480577,0.9603038409073099,-0.014565728345224386,3.2035116927612832,1.5707156194028382,-0.0002759497646475104,1.5753430958936436,-0.0046274764908054156,6925963.736779851,4165578.2561477073
0.6,-0.0060285722130772905,1.3449543690827588,-0.017492410055967137,3.8465052817544882,1.570682303884964,-0.00033315517874156253,1.5753439065304433,-0.004661602645479324,6922686.451128781,4162300.9704966373
0.7,-0.008064379644323365,1.7939817173878132,-0.02035807431246075,4.490273483050545,1.5706432826249959,-0.0003902125996816444,1.575330111852972,-0.00468682922797603,6919409.160734177,4159023.680102033
0.7999999999999999,-0.010379699374789128,2.307463489641018,-0.023153197304657622,5.134817722532048,1.570598570784597,-0.0004471184039879867,1.5753053554778444,-0.004706784693247368,6916131.865399544,4155746.3847674006
0.8999999999999999,-0.012966533257271262,2.8854774226432216,-0.02586833882482135,5.780139330022035,1.57054818375212,-0.0005038703247696506,1.5752716801806546,-0.004723496428534535,6912854.565124251,4152469.084492107
0.9999999999999999,-0.015815945181054593,3.528101376544098,-0.028494119237833317,6.426239539008765,1.5704921370508855,-0.0005604670123451809,1.5752303246765442,-0.004738187625658696,6909577.260103365,4149191.7794712214
1.0999999999999999,-0.018918064891930944,4.235413344585524,-0.031021197108763495,7.07311968041426,1.5704304462897176,-0.0006169076116789868,1.5751820857829784,-0.00475163949326074,6906299.950336756,4145914.4697046126
1.2,-0.02226209116348455,5.007491462854937,-0.033440262715536045,7.720781182694136,1.5703631271258875,-0.0006731916382996825,1.5751275016878492,-0.0047643745619616595,6903022.635629049,4142637.154996905
1.3,-0.025836293798534242,5.844413990915549,-0.03574202635049692,8.369225280606116,1.5702901952502824,-0.0007293187560519681,1.5750669501634296,-0.004776754913147219,6899745.31617567,4139359.835543527
1.4000000000000001,-0.029628172392208378,6.74625927223116,-0.037918785936741375,9.018452813156106,1.5702116634484997,-0.000785318017826666,1.5750008797571342,-0.004789216308634492,6896467.992963663,4136082.5123315197
1.5000000000000002,-0.03362509674364677,7.713105585458415,-0.0399692435143839,9.668463132272553,1.570127529676403,-0.0008413377209665623,1.574930284310287,-0.004802754633884021,6893190.669951618,4132805.1893194737
1.6000000000000003,-0.03781351068714439,8.745031342243305,-0.041884139434976195,10.319257567848908,1.570037791885486,-0.0008973779091697601,1.5748551371463568,-0.004817345260870853,6889913.347139537,4129527.8665073933
1.7000000000000004,-0.04217892986863625,9.842115077480052,-0.04365419181491856,10.970837352367477,1.569942448033041,-0.0009534385244496083,1.5747754179087181,-0.004832969875677051,6886636.024722768,4126250.544090624
1.8000000000000005,-0.04670594059710222,11.004435458994799,-0.04527010728465972,11.623203815147463,1.5698414960719695,-0.0010095196107156306,1.5746911116664661,-0.004849615594496592,6883358.702701314,4122973.2220691703
1.9000000000000006,-0.05137819774120371,12.232071297239068,-0.04672257144101486,12.276358382442695,1.56973493395821,-0.0010656211375947556,1.5746022067144498,-0.004867272756239771,6880081.380879779,4119695.900247636
2.0000000000000004,-0.05617842332512539,13.525101535496743,-0.04800225583921683,12.930302382576741,1.5696227596453605,-0.0011217431284965388,1.5745086943715871,-0.004885934726226671,6876804.059258161,4116418.5786260176
2.1000000000000005,-0.06108840464982973,14.88360524005174,-0.0490998132470434,13.58503704554997,1.5695049710881106,-0.0011778855724992449,1.5744105679110267,-0.004905596822916136,6873526.73803182,4113141.2573996773
2.2000000000000006,-0.06608899293151563,16.307661619574446,-0.05000588281685903,14.24056379522706,1.5693815662353392,-0.001234048527715038,1.5743078224071172,-0.0049262561717779985,6870249.417005392,4109863.9363732487
2.3000000000000007,-0.07116010140655982,17.797350005504136,-0.05071108475044195,14.896883859296873,1.5692525430338804,-0.0012902320145888745,1.5742004540840564,-0.0049479110501760015,6866972.096374246,4106586.615742103
2.400000000000001,-0.07628070339630867,19.35274987142038,-0.051206019897488526,15.553998659162414,1.56911789943199,-0.001346436018904096,1.5740884599644276,-0.004970560532437496,6863694.775942993,4103309.2953108503
2.500000000000001,-0.08142883088018055,20.973940813368596,-0.05148127483871877,16.211909419482165,1.568977633374297,-0.001402660576931059,1.5739718381096346,-0.004994204735337515,6860417.45590701,4100031.975274867
2.600000000000001,-0.0865815724049771,22.661002569214524,-0.05152741524796553,16.87061755845929,1.5688317428078624,-0.0014589056643458198,1.573850586951333,-0.0050188441434706466,6857140.136070901,4096754.655438758
2.700000000000001,-0.09171507156904375,24.4140149989146,-0.05133499164066647,17.530124297000736,1.5686802256786865,-0.0015151712917590696,1.573724705626184,-0.005044479947497571,6853862.816630035,4093477.335997892
2.800000000000001,-0.09680452536270881,26.233058103851306,-0.05089453793665058,18.19043104936709,1.5685230799294658,-0.0015714574922054752,1.5735941937061666,-0.005071113776700775,6850585.497389036,4090200.016756894
2.9000000000000012,-0.10182418225612128,28.118212007048974,-0.05019656893412471,18.851539031976692,1.568360303503363,-0.0016277642610282106,1.573459051053962,-0.005098747550599025,6847308.178543269,4086922.697911127
3.0000000000000013,-0.10674734074675503,30.069556972490638,-0.049231584906337465,19.51344965441662,1.5681918943376096,-0.0016840916575336605,1.5733192779552774,-0.005127383617667736,6844030.859897366,4083645.379265224
3.1000000000000014,-0.11154634732275129,32.087173395074764,-0.047990065759962564,20.176164225841237,1.568017850369016,-0.0017404396859355459,1.5731748748044012,-0.005157024435385127,6840753.541451318,4080368.060819176
3.2000000000000015,-0.116192594791076,34.171141790528445,-0.04646247468324713,20.839683954536785,1.5678381695327335,-0.0017968083628268623,1.5730258422616523,-0.005187672728918846,6837476.223400495,4077090.742768353
3.3000000000000016,-0.12065651953789817,36.321542814699775,-0.04463924746822173,21.50401024171328,1.5676528497792206,-0.0018531975351298367,1.572872180686663,-0.005219330907442421,6834198.905549457,4073813.424917315
3.4000000000000017,-0.1249076005313163,38.53845724362977,-0.042510809934181236,22.169144289299993,1.5674618890608822,-0.0019096071833830058,1.5727138910127387,-0.005252001951856489,6830921.588093562,4070536.1074614204
3.5000000000000018,-0.12891357884921997,40.821966229750196,-0.040059783179036655,22.83508986120422,1.5672652997353194,-0.0019658932556287736,1.5725506330983379,-0.005285333363018507,6827644.2660988,4067258.785466658
3.600000000000002,-0.1326406891306373,43.172151203002734,-0.03727110281417327,23.50184973252537,1.5670631042803438,-0.002021954549756425,1.5723822050126803,-0.005319100732336546,6824366.936599953,4063981.4559678114
3.700000000000002,-0.13605352857705805,45.58909378214509,-0.03412839446420737,24.169425791423603,1.5668553377532142,-0.0020776652712958077,1.572208374068014,-0.005353036314799775,6821089.598382263,4060704.1177501213
3.800000000000002,-0.13910723794931057,48.0728769610863,-0.030537093722525298,24.837831789412068,1.5666421923984755,-0.002131453547386776,1.572025785090417,-0.005383592691941441,6817812.226305482,4057426.74567334
3.900000000000002,-0.1417564275097508,50.62358368144639,-0.026491895604402176,25.507067203600887,1.5664238530896302,-0.0021833930884533094,1.5718349364424602,-0.005411083352830026,6814534.823932638,4054149.3433004967
4.000000000000002,-0.14395519532051074,53.2412968715884,-0.021987678107599492,26.177131901420125,1.5662004975353765,-0.0022335555425359666,1.5716362840911897,-0.005435786555813227,6811257.394042096,4050871.913409954
4.100000000000001,-0.14565707041773412,55.926099426657544,-0.017018750972233973,26.84802555069137,1.5659722978573014,-0.0022819967807517945,1.5714302187978901,-0.005457920940588723,6807979.939795937,4047594.4591637957
4.200000000000001,-0.14681508424137968,58.67807425749995,-0.011580138236455402,27.51974830842407,1.56573941977461,-0.0023287808269148824,1.5712171205253909,-0.005477700750780912,6804702.463379906,4044316.9827477634
4.300000000000001,-0.147381813296691,61.49730430033624,-0.005667290553113252,28.192300428362877,1.5655020223055542,-0.002373974690557659,1.5709973494284053,-0.005495327122851057,6801424.966783217,4041039.486151075
4.4,-0.1473093942854357,64.38387250674282,0.0007241901125528737,28.865682064065737,1.56526025795973,-0.0024176434582428015,1.570771238521881,-0.005510980562151158,6798147.452187975,4037761.9715558332
4.5,-0.14654953415060462,67.33786189279299,0.00759860134831086,29.53989386050166,1.5650142729991756,-0.0024598496055438937,1.5705390949572806,-0.005524821958104997,6794869.920796892,4034484.44016475
4.6,-0.14505352230646007,70.35935550936227,0.014960118441445482,30.214936165692905,1.5647642076481574,-0.0025006535101824135,1.5703012035506532,-0.005536995902495789,6791592.374396588,4031206.893764446
4.699999999999999,-0.1427722420282282,73.44843647160909,0.022812802782318717,30.89080962246804,1.5645101962945422,-0.0025401135361504262,1.5700578288754858,-0.005547632580943596,6788314.814185505,4027929.3335533626
4.799999999999999,-0.1396562082743208,76.60518795896638,0.03116033753907413,31.567514873572954,1.5642523671895936,-0.0025782910494857743,1.5698092257340965,-0.005556858544502941,6785037.241361326,4024651.7607291834
4.899999999999999,-0.13565678206715304,79.82969313989216,0.039994262071677444,32.24505180925768,1.5639908204622641,-0.002615467273293731,1.5695560049681796,-0.005565184505915477,6781759.6587328715,4021374.17810073
4.999999999999998,-0.1307249826755155,83.12203525756681,0.04931799391637545,32.923421176746444,1.5637256503036523,-0.002651701586118629,1.569298367127714,-0.005572716824061796,6778482.067296329,4018096.5866641873
5.099999999999998,-0.12481148534130643,86.48229763968642,0.05913497334209073,33.60262382119616,1.563456945283395,-0.0026870502025711715,1.569036496592062,-0.005579551308666941,6775204.46785079,4014818.9872186487
5.1999999999999975,-0.11786661718858596,89.91056371815881,0.06944868152720468,34.282660784723916,1.5631847886808972,-0.002721566024978816,1.5687705626057062,-0.005585773924809079,6771926.860802979,4011541.380170838
5.299999999999997,-0.10984035548013658,93.40691700922517,0.08026261708449378,34.963532910663574,1.5629092587623818,-0.002755299185153946,1.5685007213622277,-0.005591462599845887,6768649.246948986,4008263.7663168446
5.399999999999997,-0.10068232270583852,96.97144112323424,0.09158032774298065,35.64524114009074,1.5626304290970572,-0.002788296653247352,1.5682271163389894,-0.005596687241932186,6765371.626888163,4004986.146256021
5.4999999999999964,-0.09034178662015996,100.60421977445225,0.10340536085678556,36.327786512179976,1.5623483687677233,-0.002820603293338466,1.5679498808230294,-0.005601512055306124,6762094.001023432,4001708.5203912905
5.599999999999996,-0.07876765605067823,104.30533678094577,0.11574130569481733,37.011170064935165,1.5620631426468305,-0.0028522612089283716,1.5676691376733043,-0.005605995026473742,6758816.369756611,3998430.8891244694
5.699999999999996,-0.06590847793991826,108.07487606445892,0.12859178110759967,37.69539283513151,1.5617748116369945,-0.002883310098359813,1.5673850005658312,-0.00561018892883669,6755538.733488555,3995153.252856414
5.799999999999995,-0.051712436273850505,111.91292165029124,0.14196041666067755,38.380455858323145,1.5614834328647396,-0.0029137877225490797,1.5670975752790595,-0.0056141424143199,6752261.092619314,3991875.611987173
5.899999999999995,-0.03612734891642267,115.8195576671533,0.15585087357427835,39.066360168620726,1.5611890599011937,-0.0029437296354595005,1.566806959827785,-0.00561789992659123,6748983.447548135,3988597.9669159944
5.999999999999995,-0.019100665775678507,119.7948683569611,0.17026683140744162,39.75310689807806,1.5608917429457163,-0.002973169554774512,1.5665132454580544,-0.005621502512338061,6745705.7984782085,3985320.3178460677
6.099999999999994,-0.0005794004159720006,123.83893806426931,0.18521265359706507,40.44069707308205,1.560591530223607,-0.003002127221092066,1.56621650072693,-0.00562497050332289,6742428.14580533,3982042.6651731892
6.199999999999994,0.019489822109094543,127.95185124637703,0.2006922252506654,41.12913182107724,1.5602884672411703,-0.0030306298243676457,1.5659168016614806,-0.005628334420310299,6739150.48973103,3978765.009098889
6.299999999999994,0.04116075159781822,132.13369247328595,0.21670929488723673,41.81841226908928,1.5599825966619703,-0.0030587057920009215,1.5656142229494012,-0.005631626287430969,6735872.8304568175,3975487.3498246768
6.399999999999993,0.06448751185743426,136.3845464275635,0.23326760259616042,42.50853954277559,1.5596739584096673,-0.0030863825230300645,1.565308835018614,-0.005634876608946682,6732595.168183805,3972209.6875516647
6.499999999999993,0.08952460346253863,140.70449789420476,0.25037091605104367,43.19951466641273,1.5593625898305505,-0.003113685791168282,1.5650007035171565,-0.005638113686605939,6729317.503308008,3968932.022675867
6.5999999999999925,0.11632690497362826,145.09363178038626,0.26802301511089627,43.89133886181495,1.5590485258139262,-0.0031406401662441973,1.5646898900660433,-0.0056413642521171425,6726039.835834314,3965654.355202173
6.699999999999992,0.1449496759519324,149.55203310531914,0.28622770978304146,44.58401324932891,1.5587317989438574,-0.003167268700687171,1.564376452121438,-0.005644653177580672,6722762.1659625815,3962376.6853304403
6.799999999999992,0.17545921840845677,154.07978744450978,0.3050954245652437,45.27754339190642,1.558412634567256,-0.0031916437660146645,1.5640580900400936,-0.005645455472837568,6719484.482847704,3959099.0022155624
6.8999999999999915,0.20792130532234565,158.67698039743914,0.32462086913888866,45.97192952929348,1.5580912397194822,-0.0032139484777375994,1.563735159747153,-0.005643920027670779,6716206.788498975,3955821.3078668336
6.999999999999991,0.24240118403972188,163.34369760856958,0.3447987871737624,46.667172111304396,1.557767803823743,-0.003234358957391843,1.56340799581922,-0.00564019199547694,6712929.084527147,3952543.6038950053
7.099999999999991,0.2789636145677286,168.08002478794177,0.3656243052800674,47.36327179372178,1.5574424999742207,-0.0032530384952240295,1.5630769056283957,-0.0056344056541750565,6709651.372144674,3949265.8915125323
7.19999999999999,0.3176699825991166,172.88604762621432,0.38706368031388,48.06022838272562,1.5571154327466665,-0.0032706722755424995,1.562742779713772,-0.00562734696710554,6706373.654958129,3945988.174325987
7.29999999999999,0.3585810165556894,177.76185189560582,0.40911033956572807,48.75804269391489,1.556786688184325,-0.003287445623413917,1.5624059009991804,-0.005619212814855334,6703095.93396974,3942710.453337598
7.39999999999999,0.4017574364067895,182.7075234727095,0.4317641985110008,49.45671577103698,1.5564563459118659,-0.0033034227245927836,1.5620664056253437,-0.005610059713477833,6699818.209580965,3939432.728948823
7.499999999999989,0.4472599640896406,187.72314834864184,0.4550252768285106,50.15624875932324,1.5561244795640072,-0.003318663478585678,1.561724420397723,-0.005599940833715733,6696540.481996558,3936155.001364416
7.599999999999989,0.4951493306779412,192.8088126191905,0.47889366588300647,50.85664270548643,1.5557911571414187,-0.003333224225884764,1.5613800640126703,-0.0055889068712515755,6693262.751615526,3932877.270983384
7.699999999999989,0.5454862856929332,197.96460249494484,0.5033695501499207,51.557898757543434,1.5554564413831156,-0.0033471575830318887,1.5610334472073446,-0.005577005824229042,6689985.018640488,3929599.5380083458
7.799999999999988,0.5983316036367469,203.19060429140444,0.5284531794381366,52.26001796459588,1.555120390077298,-0.0033605130581748216,1.560684673771443,-0.005564283694144967,6686707.283468584,3926321.8028364405
7.899999999999988,0.6537460947796224,208.48690444909928,0.5541449114287558,52.96300157694842,1.55478305642612,-0.0033733365117803596,1.5603338402436784,-0.005550783817558358,6683429.546105394,3923044.065473251
7.999999999999988,0.7117906102730117,213.85358952369404,0.5804451549338927,53.666850745947556,1.5544444893010991,-0.0033856712502092303,1.5599810373743457,-0.00553654807324655,6680151.806751243,3919766.3261190993
8.099999999999987,0.7725260500228258,219.29074618606043,0.607354397498141,54.371566623663824,1.5541047335327238,-0.003397557683752616,1.5596263499952592,-0.00552161646253535,6676874.065605856,3916488.584973712
8.199999999999987,0.8360133700033674,224.79846122234224,0.6348731998054161,55.077150362818166,1.5537638301773475,-0.0034090335537634497,1.5592698574865986,-0.005506027309251094,6673596.322868444,3913210.8422363
8.299999999999986,0.9023148785979996,230.376821553546,0.6630150859463223,55.783603312037435,1.5534218402227964,-0.003419899545511358,1.5589114031073452,-0.0054895628845488265,6670318.577940764,3909933.09730862
8.399999999999986,0.9714931620376636,236.02591422192302,0.6917828343966393,56.49092668377035,1.5530788252031134,-0.003430150196830413,1.558551028343235,-0.005472203140121534,6667040.830824746,3906655.3501926023
8.499999999999986,1.0436108453349076,241.74582638490554,0.7211768329724407,57.199121629825285,1.5527348430340764,-0.003439821690370327,1.558188814619534,-0.005453971585457573,6663763.0817201715,3903377.601088028
8.599999999999985,1.1187305905136335,247.53664531534687,0.7511974517872596,57.908189304413426,1.5523899481554897,-0.003448948785867606,1.5578248398893582,-0.005434891733868463,6660485.330826362,3900099.8501942176
8.699999999999985,1.1969150969268765,253.39845841180485,0.7818450641324285,58.618130964579656,1.5520441916975245,-0.003457564579650988,1.5574591784989376,-0.0054149868014130575,6657207.578146829,3896822.0975146857
8.799999999999985,1.2782271023820244,259.33135318866005,0.8131200545514805,59.32894776855219,1.551697621658264,-0.0034657003926033734,1.5570919012130866,-0.005394279554822523,6653929.823880069,3893544.343247925
8.899999999999984,1.3627293836583327,265.3354172763061,0.8450228127630832,60.04064087646015,1.551350283057403,-0.0034733860086107,1.556723075538756,-0.005372792481352917,6650652.068224228,3890266.5875920844
8.999999999999984,1.450484756468759,271.41073843144324,0.8775537281042636,60.753211551371244,1.5510022180672107,-0.003480649901923456,1.556352766021712,-0.005350547954501295,6647374.311181779,3886988.8305496355
9.099999999999984,1.5415560767493486,277.55740453726787,0.910713202805895,61.46666105824648,1.550653466162287,-0.0034875190492377785,1.5559810341718712,-0.005327568009584116,6644096.5527549125,3883711.0721227694
9.199999999999983,1.636006241399191,283.775503583452,0.944501646498423,62.18099046184142,1.5503040642584816,-0.003494019038055328,1.5556079386679003,-0.005303874409418707,6640818.7933363225,3880433.312704179
9.299999999999983,1.7338981893037235,290.0651236966272,0.9789194790453268,62.89620113175214,1.5499540468308661,-0.0035001742761552046,1.5552335355838232,-0.005279488752957029,6637541.03273236,3877155.5521002165
