t[s],x[m],y[m],vx[m/s],vy[m/s],mass[kg]
5.526137699960302,6378236.482139191,2570.22911107386,39.51155802821563,464.84447515202083,6761211.790281723
5.542242228742049,6378237.119316556,2577.7151975637935,39.618651964180756,464.8426433872493,6760683.90789007
5.642242228742049,6378241.114435441,2624.1988868350577,40.28375789818412,464.8310906974687,6757406.057300293
5.7422422287420485,6378245.176074408,2670.681405388766,40.94905200251166,464.81922857310235,6754128.206710516
5.842242228742048,6378249.304251793,2717.162722143055,41.61452465555523,464.80705425106487,6750850.356120738
5.942242228742048,6378253.49898497,2763.6428057412477,42.28016624605085,464.7945649980989,6747572.505530961
6.042242228742047,6378257.760290354,2810.1216245548108,42.94596717408199,464.78175811021015,6744294.6549411835
6.142242228742047,6378262.0881833965,2856.5991466862506,43.611917852081504,464.7686309121224,6741016.804351406
6.242242228742047,6378266.482678596,2903.0753399719606,44.27800870583144,464.7551807567518,6737738.953761629
6.342242228742046,6378270.943789491,2949.5501719850135,44.94423017546121,464.7414050246999,6734461.1031718515
6.442242228742046,6378275.471528667,2996.0236100379066,45.61057271644339,464.7273011237624,6731183.252582074
6.542242228742046,6378280.065907753,3042.4956211852564,46.27702680058715,464.71286648845586,6727905.401992297
6.642242228742045,6378284.726937428,3088.966172226448,46.94358291702908,464.6980985795584,6724627.551402519
6.742242228742045,6378289.454627421,3135.435229708239,47.610231573221306,464.6829948836657,6721349.700812742
6.842242228742045,6378294.2489865115,3181.902759927319,48.27696329591644,464.66755291276047,6718071.850222965
6.942242228742044,6378299.110022534,3228.3687289328277,48.943768632149535,464.6517702037951,6714793.999633187
7.042242228742044,6378304.037742377,3274.833102528832,49.610638150216474,464.6356443182868,6711516.14904341
7.1422422287420435,6378309.03215199,3321.2958462767624,50.27756244064887,464.6191728419244,6708238.298453633
7.242242228742043,6378314.093256379,3367.7569254978107,50.94453211718517,464.6023533841865,6704960.447863855
7.342242228742043,6378319.221059614,3414.2163052752903,51.61153781773768,464.5851835779698,6701682.597274078
7.442242228742042,6378324.415564831,3460.673950456961,52.278570205355535,464.56766107922846,6698404.746684301
7.542242228742042,6378329.676774234,3507.129825657315,52.9456199691833,464.5497835666219,6695126.896094523
7.642242228742042,6378335.004689095,3553.583895259832,53.61267782541488,464.5315487411728,6691849.045504746
7.742242228742041,6378340.39930976,3600.0361234191982,54.27973451824286,464.51295432593315,6688571.194914969
7.842242228742041,6378345.860635652,3646.486474063493,54.946780820802815,464.4939980656588,6685293.344325191
7.942242228742041,6378351.388665272,3692.934910896343,55.61380753611248,464.4746777264919,6682015.493735414
8.04224222874204,6378356.983396201,3739.381397399045,56.280805498005684,464.45499109565094,6678737.643145637
8.14224222874204,6378362.644825108,3785.82589683266,56.94776557206083,464.43493598112775,6675459.792555859
8.24224222874204,6378368.372947749,3832.2683722400734,57.61467865652359,464.41451021139153,6672181.941966082
8.34224222874204,6378374.1677589705,3878.70878644803,58.28153568322392,464.39371163509935,6668904.091376305
8.442242228742039,6378380.029252715,3925.1471020691374,58.94832761848697,464.37253812081264,6665626.240786527
8.542242228742039,6378385.957422025,3971.5832815038434,59.61504546403779,464.35098755672004,6662348.39019675
8.642242228742038,6378391.95225904,4018.017286942384,60.28168025789973,464.32905785036553,6659070.539606973
8.742242228742038,6378398.01375501,4064.449080366707,60.94822307528632,464.30674692838204,6655792.689017195
8.842242228742037,6378404.1419002935,4110.878623552367,61.61466502948642,464.28405273623036,6652514.838427418
8.942242228742037,6378410.336684359,4157.305878070394,62.28099727274252,464.26097323794295,6649236.987837641
9.042242228742037,6378416.598095797,4203.730805289141,62.94721099712206,464.2375064158722,6645959.137247863
9.142242228742036,6378422.926122316,4250.153366376102,63.61329743538154,464.21365027044345,6642681.286658086
9.242242228742036,6378429.320750751,4296.573522299706,64.27924786182325,464.1894028199123,6639403.436068309
9.342242228742036,6378435.781967065,4342.99123383109,64.94505359314462,464.1647621001258,6636125.585478531
9.442242228742035,6378442.309756358,4389.406461545844,65.61070598927981,464.1397261642878,6632847.734888754
9.542242228742035,6378448.904102866,4435.819165825737,66.2761964542336,464.114293082728,6629569.8842989765
9.642242228742035,6378455.564989966,4482.22930686042,66.94151643690725,464.0884609426744,6626292.033709199
9.742242228742034,6378462.292400187,4528.636844649101,67.60665743191636,464.0622278480294,6623014.183119422
9.842242228742034,6378469.086315204,4575.0417390022,68.27161098040044,464.0355919191493,6619736.3325296445
9.942242228742034,6378475.946715854,4621.443949542991,68.93636867082412,464.00855129262635,6616458.481939867
10.042242228742033,6378482.873582131,4667.8434357092065,69.60092213976998,463.9811041210746,6613180.63135009
10.142242228742033,6378489.866893197,4714.240156754634,70.26526307272245,463.95324857291814,6609902.780760312
10.242242228742032,6378496.926627385,4760.6340717506855,70.92938320484332,463.9249828321819,6606624.930170535
10.342242228742032,6378504.052762204,4807.025139587947,71.59327432173805,463.8963050982859,6603347.079580758
10.442242228742032,6378511.2452743435,4853.413318977707,72.25692826021323,463.867213585841,6600069.22899098
10.542242228742031,6378518.5041396795,4899.798568453466,72.9203369090248,463.837706524448,6596791.378401203
10.642242228742031,6378525.82933328,4946.180846372427,73.58349220961706,463.8077821584983,6593513.527811426
10.74224222874203,6378533.22082941,4992.560110916964,74.24638615685238,463.77743874697745,6590235.677221648
10.84224222874203,6378540.678601534,5038.936320096067,74.90901079973115,463.74667456327035,6586957.826631871
10.94224222874203,6378548.202622329,5085.309431746781,75.57135824210249,463.7154878949686,6583679.976042094
11.04224222874203,6378555.792863681,5131.6794035356115,76.23342064336498,463.6838770436799,6580402.125452316
11.14224222874203,6378563.449296697,5178.046192959916,76.89519021915771,463.6518403248394,6577124.274862539
11.242242228742029,6378571.171891707,5224.409757349281,77.55665924204138,463.61937606752264,6573846.424272762
11.342242228742029,6378578.9606182715,5270.770053866873,78.21782004216934,463.5864826142604,6570568.573682984
11.442242228742028,6378586.8154451875,5317.1270395107795,78.87866500794863,463.553158320855,6567290.723093207
11.542242228742028,6378594.736340494,5363.4806711153215,79.53918658669075,463.51940155619866,6564012.87250343
11.642242228742028,6378602.723271476,5409.830905352356,80.1993772852522,463.48521070209273,6560735.021913652
11.742242228742027,6378610.776204674,5456.177698732561,80.85922967066455,463.4505841530689,6557457.171323875
11.842242228742027,6378618.895105887,5502.521007606694,81.51873637075418,463.41552031621177,6554179.320734098
11.942242228742026,6378627.079940181,5548.860788166843,82.1778900747515,463.3800176109824,6550901.47014432
12.042242228742026,6378635.330671893,5595.196996447653,82.83668353388933,463.34407446904373,6547623.619554543
12.142242228742026,6378643.64726464,5641.529588327538,83.49510956199094,463.3076893340869,6544345.768964766
12.242242228742025,6378652.02968132,5687.858519529875,84.15316103604718,463.27086066165873,6541067.918374988
12.342242228742025,6378660.477884126,5734.183745624182,84.81083089678268,463.23358691899085,6537790.067785211
12.442242228742025,6378668.9918345455,5780.505222027277,85.4681121492114,463.1958665848292,6534512.217195434
12.542242228742024,6378677.571493371,5826.822904004422,86.12499786318118,463.1576981492655,6531234.366605656
12.642242228742024,6378686.216820705,5873.136746670446,86.78148117390724,463.1190801135689,6527956.516015879
12.742242228742024,6378694.927775966,5919.446704990861,87.43755528249459,463.0800109900192,6524678.665426102
12.842242228742023,6378703.704317897,5965.752733782947,88.09321345644959,463.0404893017412,6521400.814836324
12.942242228742023,6378712.54640457,6012.054787716833,88.74844903018014,463.00051358253927,6518122.964246547
13.042242228742023,6378721.453993396,6058.3528213165555,89.40325540548481,462.96008237673345,6514845.1136567695
13.142242228742022,6378730.427041126,6104.646788961103,90.0576260520307,462.9191942389964,6511567.263066992
13.242242228742022,6378739.465503866,6150.936644885441,90.71155450782005,462.877847734191,6508289.412477215
13.342242228742021,6378748.569337075,6197.222343181524,91.36503437964566,462.8360414372087,6505011.5618874375
13.442242228742021,6378757.738495578,6243.5038377992905,92.01805934353489,462.7937739328091,6501733.71129766
13.54224222874202,6378766.972933572,6289.781082547643,92.6706231451823,462.75104381545987,6498455.860707883
13.64224222874202,6378776.272604629,6336.0540310954075,93.32271960037106,462.70784968917775,6495178.010118105
13.74224222874202,6378785.63746171,6382.322636972283,93.97434259538281,462.6641901673701,6491900.159528328
13.84224222874202,6378795.067457165,6428.586853569775,94.62548608739624,462.62006387267735,6488622.308938551
13.94224222874202,6378804.562542745,6474.846634142103,95.27614410487425,462.57546943681587,6485344.458348773
14.042242228742019,6378814.1226696065,6521.101931807109,95.92631074793962,462.53040550042186,6482066.607758996
14.142242228742019,6378823.74778832,6567.352699547139,96.57598018873925,462.4848707128959,6478788.757169219
14.242242228742018,6378833.437848878,6613.598890209908,97.22514667179703,462.4388637322477,6475510.906579441
14.342242228742018,6378843.1928007,6659.840456509357,97.87380451435524,462.39238322494214,6472233.055989664
14.442242228742018,6378853.01259264,6706.077351026491,98.52194810670449,462.3454278657455,6468955.205399887
14.542242228742017,6378862.897172995,6752.309526210198,99.16957191250224,462.29799633757244,6465677.354810109
14.642242228742017,6378872.846489513,6798.53693437806,99.81667046907987,462.25008733133365,6462399.504220332
14.742242228742017,6378882.8604894,6844.759527717145,100.46323838773844,462.20169954578404,6459121.653630555
14.842242228742016,6378892.939119325,6890.977258284779,101.10927035403294,462.1528316873716,6455843.803040777
14.942242228742016,6378903.082325431,6937.190078009315,101.75476112804517,462.10348247008653,6452565.952451
15.042242228742015,6378913.290053339,6983.397938690871,102.39970554464536,462.0536506153116,6449288.101861223
15.142242228742015,6378923.562248158,7029.600792002073,103.04409851374224,462.00333485167226,6446010.251271445
15.242242228742015,6378933.898854493,7075.79858948876,103.68793502052208,461.9525339148881,6442732.400681668
15.342242228742014,6378944.299816449,7121.991282570693,104.33121012567617,461.9012465476241,6439454.550091891
15.442242228742014,6378954.765077643,7168.178822542242,104.97391896561717,461.8494714993433,6436176.699502113
15.542242228742014,6378965.294581207,7214.3611605730575,105.61605675268433,461.797207526159,6432898.848912336
15.642242228742013,6378975.888269802,7260.538247708724,106.25761877533729,461.74445339068865,6429620.998322559
15.742242228742013,6378986.546085616,7306.710034871411,106.89860039833896,461.6912078619071,6426343.147732781
15.842242228742013,6378997.267970382,7352.876472860495,107.53899706292714,461.63746971500143,6423065.297143004
15.942242228742012,6379008.053865381,7399.037512353176,108.1788042869752,461.58323773122555,6419787.446553227
16.042242228742012,6379018.903711445,7445.193103905077,108.81801766514164,461.5285106977558,6416509.595963449
16.142242228742013,6379029.817448974,7491.34319795083,109.45663286900867,461.4732874075469,6413231.745373672
16.242242228742015,6379040.795017937,7537.487744804643,110.09464564721006,461.41756665918837,6409953.8947838945
16.342242228742016,6379051.836357883,7583.62669466086,110.7320518255479,461.36134725676175,6406676.044194117
16.442242228742018,6379062.941407946,7629.759997594502,111.3688473070987,461.304628009698,6403398.19360434
16.54224222874202,6379074.110106854,7675.887603561795,112.00502807230873,461.2474077326356,6400120.3430145625
16.64224222874202,6379085.342392938,7722.0094624006815,112.64059017907857,461.1896852452794,6396842.492424785
16.742242228742022,6379096.638204139,7768.125523831324,113.27552976283728,461.13145937225954,6393564.641835008
16.842242228742023,6379107.997478014,7814.235737456588,113.90984303660562,461.0727289429913,6390286.7912452305
16.942242228742025,6379119.420151746,7860.340052762513,114.54352629104929,461.0134927915354,6387008.940655453
17.042242228742026,6379130.90616215,7906.438419118771,115.17657589452133,460.95374975645854,6383731.090065676
17.142242228742028,6379142.4554456845,7952.530785779111,115.80898829309436,460.8934986806951,6380453.239475898
17.24224222874203,6379154.067938453,7998.617101881789,116.44076001058257,460.8327384114087,6377175.388886121
17.34224222874203,6379165.7435762165,8044.6973164499805,117.0718876485535,460.7714677998548,6373897.538296344
17.442242228742032,6379177.482294402,8090.771378392188,117.70236788632958,460.70968570124364,6370619.687706566
17.542242228742033,6379189.284028105,8136.839236502626,118.33219748097993,460.6473909746037,6367341.837116789
17.642242228742035,6379201.148712104,8182.900839461596,118.96137326730181,460.58458248264594,6364063.986527012
17.742242228742036,6379213.076280862,8228.95613583585,119.58989215779258,460.5212590916284,6360786.135937234
17.842242228742037,6379225.066668538,8275.00507407894,120.21775114261162,460.45741967122126,6357508.285347457
17.94224222874204,6379237.119808996,8321.047602531544,120.8449472895327,460.39306309437285,6354230.43475768
18.04224222874204,6379249.235635807,8367.0836694218,121.47147774388675,460.32818823717594,6350952.584167902
18.14224222874204,6379261.414082263,8413.113222865602,122.09733972849493,460.2627939787347,6347674.733578125
18.242242228742043,6379273.65508138,8459.136210866904,122.72253054359255,460.1968792010321,6344396.882988348
18.342242228742045,6379285.958565911,8505.15258131799,123.34704756674347,460.1304427887983,6341119.03239857
18.442242228742046,6379298.324468349,8551.162281999756,123.97088825274534,460.063483629379,6337841.181808793
18.542242228742047,6379310.752720935,8597.165260581953,124.59405013352574,459.9960006126051,6334563.331219016
18.64224222874205,6379323.243255669,8643.161464623436,125.21653081802913,459.9279926306624,6331285.480629238
18.74224222874205,6379335.796004315,8689.150841572391,125.8383279920951,459.85945857796213,6328007.630039461
18.84224222874205,6379348.410898409,8735.13333876655,126.45943941832765,459.79039735101213,6324729.779449684
18.942242228742053,6379361.087869268,8781.1089034334,127.07986293595566,459.7208078482886,6321451.928859906
19.042242228742055,6379373.826847997,8827.07748269036,127.69959646068493,459.65068897010843,6318174.078270129
19.142242228742056,6379386.6277654935,8873.039023544974,128.31863798454154,459.58003961850227,6314896.227680352
19.242242228742057,6379399.490552462,8918.993472895067,128.93698557570687,459.50885869708804,6311618.377090574
19.34224222874206,6379412.415139415,8964.9407775289,129.5546373783443,459.4371451109454,6308340.526500797
19.44224222874206,6379425.401456685,9010.880884125312,130.1715916124176,459.36489776649034,6305062.67591102
19.54224222874206,6379438.4494344285,9056.813739253843,130.78784657350147,459.29211557135113,6301784.825321242
19.642242228742063,6379451.559002636,9102.739289374851,131.40340063258395,459.2187974342442,6298506.974731465
19.742242228742064,6379464.73009114,9148.657480839616,132.0182522358607,459.14494226485124,6295229.1241416875
19.842242228742066,6379477.962629619,9194.56825989043,132.6323999045222,459.0705489736966,6291951.27355191
19.942242228742067,6379491.256547609,9240.471572660672,133.24584223453252,458.99561647202563,6288673.422962133
20.04224222874207,6379504.61177451,9286.36736517488,133.85857789640113,458.9201436716835,6285395.5723723555
20.14224222874207,6379518.028239591,9332.255583348799,134.470605634947,458.8441294849947,6282117.721782578
20.24224222874207,6379531.505872,9378.136172989425,135.08192426905558,458.76757282464337,6278839.871192801
20.342242228742073,6379545.044600771,9424.009079795038,135.69253269142834,458.69047260355427,6275562.0206030235
20.442242228742074,6379558.64435483,9469.874249355214,136.30242986832553,458.6128277347743,6272284.170013246
20.542242228742076,6379572.305063004,9515.731627150839,136.9116148393018,458.53463713135505,6269006.319423469
20.642242228742077,6379586.026654027,9561.581158554096,137.52008671693494,458.4558997062355,6265728.468833691
20.74224222874208,6379599.80905655,9607.422788828455,138.12784468654817,458.3766143721262,6262450.618243914
20.84224222874208,6379613.652199144,9653.256463128637,138.73488800592548,458.29678004139333,6259172.767654137
20.94224222874208,6379627.556010308,9699.082126500578,139.34121600502073,458.2163956259442,6255894.917064359
21.042242228742083,6379641.520418481,9744.89972388138,139.94682808566023,458.135460037113,6252617.066474582
21.142242228742084,6379655.545352044,9790.709200099245,140.55172372123926,458.05397218554737,6249339.215884805
21.242242228742086,6379669.630739328,9836.510499873397,141.15590245641218,457.9719309810961,6246061.365295027
21.342242228742087,6379683.776508626,9882.303567814002,141.75936390677688,457.8893353326968,6242783.51470525
21.44224222874209,6379697.98258819,9928.08834842207,142.36210775855312,457.80618414826523,6239505.664115473
21.54224222874209,6379712.248906249,9973.864786089349,142.96413376825498,457.72247633458437,6236227.813525695
21.64224222874209,6379726.575391009,10019.6328250982,143.565441762358,457.63821079719526,6232949.962935918
21.742242228742093,6379740.961970664,10065.392409621474,144.16603163696055,457.5533864402878,6229672.112346141
21.842242228742094,6379755.408573398,10111.143483722368,144.7659033574398,457.4680021665927,6226394.261756363
21.942242228742096,6379769.915127398,10156.885991354275,145.36505695810263,457.38205687727424,6223116.411166586
22.042242228742097,6379784.481560856,10202.61987636062,145.96349254183087,457.29554947182334,6219838.560576809
22.1422422287421,6379799.1078019785,10248.345082474694,146.5612102797221,457.208478847952,6216560.709987031
22.2422422287421,6379813.793778992,10294.061553319461,147.15821041072513,457.1208439014882,6213282.859397254
22.3422422287421,6379828.539420151,10339.76923240737,147.75449324127075,457.0326435262714,6210005.008807477
22.442242228742103,6379843.344653743,10385.468063140152,148.35005914489778,456.9438766140493,6206727.158217699
22.542242228742104,6379858.209408097,10431.157988808602,148.94490856187454,456.85454205437503,6203449.307627922
22.642242228742106,6379873.13361159,10476.838952592358,149.53904199881606,456.76463873450496,6200171.457038145
22.742242228742107,6379888.11719265,10522.510897559663,150.1324600282966,456.6741655392978,6196893.606448367
22.84224222874211,6379903.16007977,10568.173766667123,150.72516328845822,456.58312135111424,6193615.75585859
22.94224222874211,6379918.262201506,10613.82750275945,151.31715248261514,456.49150504971726,6190337.905268813
23.04224222874211,6379933.42348649,10659.4720485692,151.9084283788541,456.3993155121733,6187060.054679035
23.142242228742113,6379948.643863433,10705.107346716493,152.49899180963098,456.30655161275445,6183782.204089258
23.242242228742114,6379963.923261133,10750.733339708739,153.0888436713635,456.21321222284115,6180504.3534994805
23.342242228742116,6379979.2616084805,10796.34996994033,153.67798492402028,456.1192962108258,6177226.502909703
23.442242228742117,6379994.658834465,10841.957179692348,154.26641659070668,456.0248024420172,6173948.652319926
