t[s],x[m],y[m],vx[m/s],vy[m/s],mass[kg]
334.00000000000745,2819.372534884786,45560.347110412615,-149.2057022800149,-1075.8127421269228,1152320.4189118815
334.10000000000747,2804.5515139858176,45453.19477968812,-148.21020898968482,-1071.5233072449196,1150608.9943455707
334.2000000000075,2789.830321742841,45346.46846439332,-147.2119224297639,-1067.2631529479884,1148909.1389517214
334.3000000000075,2775.209077793052,45240.16529400562,-146.2124394978911,-1063.031703877012,1147220.7210274213
334.40000000000754,2760.6877441947086,45134.28245211719,-145.2133359834373,-1058.8284188843163,1145543.6211140861
334.50000000000756,2746.2661295585995,45028.8171762401,-144.2161463610922,-1054.6527587709015,1143877.7201036585
334.6000000000076,2731.9438938770713,44923.76675720244,-143.22235681527914,-1050.504190376648,1142222.8995990786
334.7000000000076,2717.720553985403,44819.12853816981,-142.23339891668124,-1046.3821903262374,1140579.0422297416
334.8000000000076,2703.595489591354,44714.89991332685,-141.25064394049048,-1042.2862484295695,1138946.0319315405
334.90000000000765,2689.5679498103214,44611.07832625633,-140.27539781033002,-1038.2158707052422,1137323.7541894221
335.0000000000077,2675.6370601452318,44507.66126805586,-139.30889665089552,-1034.1705820046368,1135712.0962412981
335.1000000000077,2661.801829852047,44404.64627523358,-138.3523029318474,-1030.149928222788,1134110.9472429901
335.2000000000077,2648.0611596335207,44302.03092742454,-137.40670218526225,-1026.1534780904408,1132520.19839467
335.30000000000774,2634.4138496056285,44199.8128449696,-136.47310027892163,-1022.1808245493496,1130939.7430299562
335.40000000000776,2620.85860748285,44097.98968639761,-135.5524212277836,-1018.2315857198944,1129369.476669447
335.5000000000078,2607.3940569302426,43996.55914584998,-134.64550552607247,-1014.3054054763702,1127809.2970409999
335.6000000000078,2594.018746031996,43895.5189504849,-133.75310898246647,-1010.4019536508208,1126259.1040695086
335.70000000000783,2580.731155827915,43794.8668578958,-132.87590204081292,-1006.5209258909806,1124718.7998392752
335.80000000000786,2567.529708871053,43694.600653575624,-132.0144695686182,-1002.6620432017592,1123188.2885323279
335.9000000000079,2554.41277776153,43594.71814845535,-131.16931109522983,-998.8250512027396,1121667.4763462127
336.0000000000079,2541.378693613416,43495.217176541715,-130.3408414811367,-995.0097191363839,1120156.2713948681
336.1000000000079,2528.425754413499,43396.09559267541,-129.52939199917378,-991.215838663068,1118654.5835962044
336.20000000000795,2515.552233232735,43297.35127042743,-128.73521180764084,-987.4432224797494,1117162.32454995
336.30000000000797,2502.7563862532893,43198.98210014753,-127.95846979445791,-983.6917027990357,1115679.4074092023
336.400000000008,2490.0364605762375,43100.98598717505,-127.1992567705167,-979.9611297247432,1114205.746748943
336.500000000008,2477.3907017772995,43003.36085021918,-126.45758798937914,-976.2513695587558,1112741.258434549
336.60000000000804,2464.8173611803527,42906.10461991196,-125.73340596946557,-972.5623030721991,1111285.8594930647
336.70000000000806,2452.314702820963,42809.215237534794,-125.02658359390036,-968.893823771686,1109839.4679897067
336.8000000000081,2439.8810100747346,42712.69065391592,-124.33692746228344,-965.2458361887602,1108402.0029117437
336.9000000000081,2427.514591927948,42616.52882849414,-123.66418146786606,-961.6182542177254,1106973.3840615621
337.00000000000813,2415.213788870652,42520.72772854175,-123.00803057296001,-958.0109995238832,1105553.5319603826
337.10000000000815,2402.976978395159,42425.28532853766,-122.36810475492773,-954.4240000408864,1104142.3677637405
337.2000000000082,2390.8025800856785,42330.19960968041,-121.74398309480793,-950.8571885725198,1102739.8131895077
337.3000000000082,2378.689060287624,42235.46855952933,-121.13519798054098,-947.3105015108182,1101345.7904588988
337.4000000000082,2366.634936347936,42141.09017176142,-120.54123939688044,-943.7838776790882,1099960.22225059
337.50000000000824,2354.638780420495,42047.0624460309,-119.96155927441328,-940.2772573051753,1098583.0316677932
337.60000000000827,2342.6992228334293,41953.38338791817,-119.39557587065822,-936.7905811272713,1097214.1422178508
337.7000000000083,2330.814955017733,41860.05100895499,-118.84267815696188,-933.3237896317227,1095853.477803693
337.8000000000083,2318.984731999148,41767.06332671302,-118.30223018585093,-929.8768224197443,1094500.9627262803
337.90000000000833,2307.2073744576874,41674.41836494325,-117.77357541460998,-926.4496176976595,1093156.5216969931
338.00000000000836,2295.4817703614754,41582.11415375492,-117.25604096211875,-923.0421118833433,1091820.0798587853
338.1000000000084,2283.8068761837376,41490.148729822926,-116.74894177737558,-919.6542393199139,1090491.5628148227
338.2000000000084,2272.181717713774,41398.52013661428,-116.2515846996353,-916.2859320864436,1089170.8966632565
338.3000000000084,2260.605390474607,41307.22642462483,-115.76327239167324,-912.9371198945108,1087858.0080367476
338.40000000000845,2249.077059761674,41216.26565161895,-115.2833071293303,-909.6077300588066,1086552.8241453588
338.50000000000847,2237.5959603184565,41125.63588286598,-114.81099443217491,-906.2976875297132,1085255.2728214562
338.6000000000085,2226.161395666275,41035.3351913684,-114.34564652181406,-903.0069149757749,1083965.282565318
338.7000000000085,2214.772737106667,40945.36165807798,-113.88658559607963,-899.7353329042515,1082682.7825902253
338.80000000000854,2203.429422415768,40855.71337209713,-113.43314690899052,-896.4828598084672,1081407.7028659093
338.90000000000856,2192.130954250965,40766.388430864,-112.98468164803158,-893.2494123313836,1080139.9741593453
339.0000000000086,2180.8768982907764,40677.38494032042,-112.54055960188454,-890.0349054357391,1078879.5280720086
339.1000000000086,2169.666881129448,40588.70101506321,-112.10017161328533,-886.8392525721302,1077626.2970728516
339.20000000000863,2158.5005879481323,40500.33477847945,-111.66293181315886,-883.6623658375645,1076380.214526397
339.30000000000865,2147.377759984773,40412.28436286763,-111.2282796335905,-880.5041561182321,1075141.2147154966
339.4000000000087,2136.29819182492,40324.547909546476,-110.79568159853082,-877.3645332115005,1073909.2328584415
339.5000000000087,2125.261728535681,40237.123568954135,-110.36463289239435,-874.243405923397,1072684.2051202569
339.6000000000087,2114.2682626648907,40150.00950074023,-109.9346587079028,-871.1406821390844,1071466.0686181467
339.70000000000874,2103.3177311273266,40063.20387385372,-109.50531537563955,-868.056268865025,1070254.7614211785
339.80000000000877,2092.410111999444,39976.70486662946,-109.07619127882526,-864.9900722426408,1069050.2225444133
339.9000000000088,2081.5454212436644,39890.51066687603,-108.64690755779544,-861.94199753431,1067852.3919377911
340.0000000000088,2070.723709382708,39804.619471967686,-108.21711860956161,-858.9119490834485,1066661.210470165
340.10000000000883,2059.945058143841,39719.029488942564,-107.78651238866884,-855.8998302512306,1065476.619908956
340.20000000000886,2049.2095770922083,39633.738934609246,-107.3548105163253,-852.9055433331644,1064298.5628959623
340.3000000000089,2038.5174002716608,39548.74603566332,-106.92176820547523,-849.9289894592757,1063126.9829198904
340.4000000000089,2027.868682870649,39464.04902881511,-106.48717401011632,-846.9700684820506,1061961.8242862201
340.5000000000089,2017.2635979298766,39379.64616092946,-106.05084940772493,-844.0286788565486,1060803.032085017
340.60000000000895,2006.7023331074615,39295.535689177734,-105.6126482241504,-841.1047175172309,1059650.5521573178
340.70000000000897,1996.1850875163846,39211.71588120213,-105.17245591077051,-838.1980797560535,1058504.3310606943
340.800000000009,1985.712068647978,39128.18501529151,-104.73018868406606,-835.3086591062636,1057364.3160345887
340.900000000009,1975.2834893941706,39044.94138056789,-104.28579253807253,-832.4363472361238,1056230.4549659698
341.00000000000904,1964.8995651801306,38961.98327718225,-103.83924214040022,-829.5810338564743,1055102.6963558253
341.10000000000906,1954.560511217862,38879.30901651768,-103.39053962268406,-826.742606645654,1053980.9892869534
341.2000000000091,1944.2665398902193,38796.9169213982,-102.93971327642815,-823.9209511948411,1052865.2833934599
341.3000000000091,1934.0178582736942,38714.805326300564,-102.48681616525076,-821.1159509763622,1051755.5288323108
341.40000000000913,1923.8146658072428,38632.97257756687,-102.03192466451434,-818.3274873369676,1050651.6762572236
341.50000000000915,1913.6571521133185,38551.41703361512,-101.57513693924332,-815.5554395174979,1049553.6767951183
341.6000000000092,1903.5454949762093,38470.13706514514,-101.11657137109299,-812.7996846997833,1048461.482025285
341.7000000000092,1893.4798584817154,38389.13105533704,-100.6563649449381,-810.0600980810332,1047375.0439613612
341.8000000000092,1883.460391321175,38308.3974000395,-100.19467160540387,-807.3365529754146,1046294.3150361471
341.90000000000924,1873.4872252618381,38227.934507945305,-99.73166059336755,-804.6289209419748,1045219.2480892385
342.00000000000927,1863.560473784626,38147.74080075155,-99.26751477212089,-801.9370719375682,1044149.7963573926
342.1000000000093,1853.6802308893755,38067.81471330225,-98.80242895250596,-799.2608744929896,1043085.9134675032
342.2000000000093,1843.846570066783,37988.154693711236,-98.33660822592432,-796.6001959101155,1042027.5534320147
342.30000000000933,1834.0595434354154,37908.75920346349,-97.87026631367635,-793.9549024775137,1040974.6706465685
342.40000000000936,1824.3191810413534,37829.62671749332,-97.40362394061945,-791.3248597016965,1039927.2198896478
342.5000000000094,1814.625490317289,37750.75572423822,-96.93690724064402,-788.7099325509831,1038885.1563239626
342.6000000000094,1804.9784556971929,37672.14472566734,-96.4703462009608,-786.1099857087808,1037848.4354993013
342.7000000000094,1795.3780383820254,37593.79223728404,-96.00417315167546,-783.5248838330148,1036817.0133565658
342.80000000000945,1785.8241762513653,37515.6967881022,-95.53862130660086,-780.9544918184146,1035790.8462327045
342.90000000000947,1776.3167839152925,37437.85692059636,-95.0739233607281,-778.3986750584031,1034769.8908662596
343.0000000000095,1766.8557529003676,37360.271190626016,-94.6103101492478,-775.8572997034354,1033754.1044032559
343.1000000000095,1757.440951963119,37282.93816733474,-94.14800937248555,-773.3302329127789,1032743.4444031693
343.20000000000954,1748.0722275240596,37205.856433025045,-93.68724439059378,-770.8173430969244,1031737.8688447342
343.30000000000956,1738.7494042149267,37129.02458301024,-93.22823309132819,-768.3185001480509,1030737.3361313671
343.4000000000096,1729.4722855315533,37052.44122544462,-92.7711868337329,-765.8335756562354,1029741.805096014
343.5000000000096,1720.2406545845467,36976.104981133685,-92.316309470065,-763.3624431093947,1028751.2350052501
343.60000000000963,1711.0542749397657,36900.01448332616,-91.86379644781036,-760.9049780752582,1027765.5855624937
343.70000000000965,1701.912891540448,36824.16837748976,-91.4138339931757,-758.461058364,1026784.8169102247
343.8000000000097,1692.8162317027488,36748.56532107271,-90.96659837699171,-756.0305641704879,1025808.8896311271
343.9000000000097,1683.7640061763962,36673.20398325317,-90.52225526352632,-753.6133781954414,1024837.7647481043
344.0000000000097,1674.7559102621674,36598.08304467866,-90.08095914228838,-751.2093857451162,1023871.4037231464
344.10000000000974,1665.7916249779175,36523.20119719771,-89.64285284249948,-748.818474809442,1022909.7684550545
344.20000000000977,1656.8708182649648,36448.55714358583,-89.2080671295265,-746.4405361188444,1021952.8212760508
344.3000000000098,1647.9931462267448,36374.1495972678,-88.77672038219941,-744.0754631802472,1021000.5249473286
344.4000000000098,1639.158254391786,36299.977282038504,-88.34891834958916,-741.723152293011,1020052.8426536145
344.50000000000983,1630.3657789932372,36226.03893178393,-87.9247539854883,-739.3835025457807,1019109.7379968322
344.60000000000986,1621.6153482573848,36152.33329020439,-87.50430735852387,-737.0564157954097,1018171.1749889737
344.7000000000099,1612.906583693831,36078.85911054146,-87.08764563553794,-734.7417966292911,1017237.1180442899
344.8000000000099,1604.2391013802714,36005.6151553102,-86.67482313559591,-732.439552312553,1016307.5319709277
344.9000000000099,1595.6125132350985,35932.60019603804,-86.26588145172832,-730.1495927216766,1015382.3819621367
345.00000000000995,1587.0264282713708,35859.81301301142,-85.86084963727689,-727.8718302661573,1014461.6335871778
345.10000000000997,1578.4804538260207,35787.252395031435,-85.45974445350217,-725.6061797998672,1013545.2527820608
345.20000000001,1569.974196758529,35714.91713917906,-85.06257067491799,-723.3525585237821,1012633.2058402351
345.30000000001,1561.5072646136641,35642.80605059089,-84.66932144864744,-721.1108858817158,1011725.4594033528
345.40000000001004,1553.0792667432695,35570.91794224582,-84.27997870394701,-718.8810834506569,1010821.9804522125
345.50000000001006,1544.6898153824775,35499.251634763095,-83.8945136079205,-716.6630748272387,1009922.7362979858
345.6000000000101,1536.3385266761434,35427.805956211916,-83.51288706334101,-714.456785511783,1009027.6945738137
345.7000000000101,1528.0250216517013,35356.579741932794,-83.13505024442073,-712.2621427912567,1008136.8232268497
345.80000000001013,1519.7489271350703,35285.57183437056,-82.76094516631092,-710.0790756223648,1007250.0905108111
345.90000000001015,1511.5098766066621,35214.78108291897,-82.39050528408183,-707.9075145158771,1006367.464979089
346.0000000000102,1503.30751099497,35144.206343776656,-82.023656116921,-705.7473914231533,1005488.9154784495
346.1000000000102,1495.14147940564,35073.846479814085,-81.66031589330073,-703.598639625698,1004614.4111433496
346.2000000000102,1487.0114397843502,35003.70036045124,-81.30039621289852,-701.4611936284365,1003743.9213908718
346.30000000001024,1478.9170595122391,34933.76686154552,-80.94380272110965,-699.3349890572734,1002877.4159162757
346.40000000001027,1470.8580159330324,34864.04486528938,-80.59043579206616,-697.2199625613614,1002014.8646891476
346.5000000000103,1462.8339968114153,34794.53326011734,-80.24019121617118,-695.1160517203879,1001156.2379501193
346.6000000000103,1454.8447007225882,34725.23094062164,-79.89296088827112,-693.0231949570709,1000301.5062081215
346.70000000001033,1446.8898373733164,34656.13680747614,-79.54863349271845,-690.9413314549525,999450.6402381236
346.80000000001036,1438.9691278551438,34587.24976736799,-79.20709518172481,-688.8704010814828,998603.6110793091
346.9000000000104,1431.0823048307873,34518.56873293636,-78.8682302435651,-686.8103443163087,997760.3900336303
347.0000000000104,1423.2291126550504,34450.09262271789,-78.53192175736834,-684.761102184613,996920.9486646787
347.1000000000104,1415.4093074319087,34381.82036109836,-78.19805223141714,-682.722616195292,996085.2587968111
347.20000000001045,1407.6226570097012,34313.75087826999,-77.86650422207506,-680.69482828372,995253.2925144662
347.30000000001047,1399.8689409166345,34245.8831101941,-77.53716093066643,-678.6776807588191,994425.0221616091
347.4000000000105,1392.1479502390498,34178.21599856869,-77.20990677584705,-676.6711162541313,993600.4203412426
347.5000000000105,1384.4594874451275,34110.748490800426,-76.88462793922281,-674.6750776825885,992779.4599149281
347.60000000001054,1376.8033661569077,34043.47953998096,-76.56121288219745,-672.6895081946743,991962.1140022628
347.70000000001056,1369.179410873682,33976.40810486699,-76.23955283225673,-670.7143511396891,991148.3559802634
347.8000000000106,1361.5874566499695,33909.53314986401,-75.91954223712528,-668.7495500298447,990338.1594826148
347.9000000000106,1354.0273487314234,33842.85364501331,-75.60107918546021,-666.7950485069451,989531.4983987473
348.00000000001063,1346.4989421521261,33776.368565982164,-75.284065792974,-664.8507903114411,988728.3468727118
348.10000000001065,1339.0021012968157,33710.076894056794,-74.96840855310408,-662.9167192536792,987928.6793018313
348.2000000000107,1331.5366994316587,33643.97761613807,-74.65401865156885,-660.9927791872059,987132.4703351121
348.3000000000107,1324.102618207222,33578.06972473967,-74.34081224436736,-659.0789139840233,986339.6948714056
348.4000000000107,1316.6997471373227,33512.3522179885,-74.0287106989926,-657.1750675117325,985550.328057319
348.50000000001074,1309.3279830574393,33446.82409962724,-73.7176407988337,-655.2811836125359,984764.3452848789
348.60000000001077,1301.9872295663451,33381.48437901883,-73.4075349109412,-653.3972060841023,983981.7221889558
348.7000000000108,1294.677396454593,33316.332071152596,-73.09833111752043,-651.5230786623326,983202.4346444677
348.8000000000108,1287.3983991234231,33251.36619665199,-72.78997331169968,-649.6587450060838,982426.458763379
348.90000000001083,1280.1501579975939,33186.58578178359,-72.48241125829229,-647.8041486839352,981653.7708915207
349.00000000001086,1272.9325979355503,33121.989858467285,-72.17560062043482,-645.9592331630943,980884.3476052564
349.1000000000109,1265.7456476402367,33057.57746428723,-71.86950295313537,-644.1239418005491,980118.1657080256
349.2000000000109,1258.589239073746,32993.34764250357,-71.56408566490708,-642.2982178365801,979355.2022267923
349.3000000000109,1251.4633068788667,32929.2994420645,-71.2593219487929,-640.4820043907415,978595.4344084332
349.40000000001095,1244.367787810446,32865.43191761846,-70.95519068420495,-638.6752444604178,977838.8397160933
349.50000000001097,1237.302620179335,32801.744129526254,-70.6516763111102,-636.8778809220462,977085.3958255451
349.600000000011,1230.2677433115161,32738.235143872746,-70.34876867818781,-635.0898565350817,976335.0806215765
349.700000000011,1223.2630970248495,32674.90403247787,-70.04646286666781,-633.3111139487593,975587.8721944381
349.80000000001104,1216.2886211256864,32611.7498729067,-69.74475899163099,-631.5415957116838,974843.7488363754
349.90000000001106,1209.3442549274255,32548.771748478277,-69.44366198260975,-629.7812442842499,974102.6890382683
350.0000000000111,1202.4299367928877,32485.96874827289,-69.14318134537716,-628.0300020538649,973364.6714863984
350.1000000000111,1195.545603702203,32423.3399671376,-68.84333090684679,-626.2878113529177,972629.6750593614
350.20000000001113,1188.6911908476998,32360.88450568966,-68.54412854503143,-624.5546144794015,971897.6788251362
350.30000000001115,1181.8666312570977,32298.601470317655,-68.2455959060212,-622.8303537200679,971168.6620383221
350.4000000000112,1175.0718554461032,32236.489973180058,-67.94775810994489,-621.1149713759611,970442.6041375494
350.5000000000112,1168.306791101316,32174.549132201042,-67.6506434478707,-619.4084097901442,969719.4847430657
350.6000000000112,1161.5713627941577,32112.7780710633,-67.35428307158446,-617.710611377409,968999.283654497
350.70000000001124,1154.8654917232298,32051.175918697827,-67.0587107092807,-616.0215236547474,968281.9808487804
350.80000000001127,1148.1890972502079,31989.741825404784,-66.76394473021986,-614.3409329304275,967567.5137663112
350.9000000000113,1141.5420954658673,31928.474951821234,-66.47001784340482,-612.6687358355142,966855.8502996148
351.0000000000113,1134.924398571534,31867.374464791967,-66.17696894333234,-611.0048702926802,966146.9696586081
351.10000000001133,1128.335914750375,31806.43953734269,-65.88483821159008,-609.3492744927645,965440.8512344847
351.20000000001136,1121.7765480695375,31745.669348644326,-65.59366680837367,-607.7018869836396,964737.4746125697
351.3000000000114,1115.2461984132226,31685.063083973855,-65.30349656314941,-606.0626467047048,964036.8195705436
351.4000000000114,1108.7447614460277,31624.61993467174,-65.01436967194827,-604.4314930211609,963338.8660767763
351.5000000000114,1102.2721286057579,31564.33909809597,-64.72632840269947,-602.8083657576874,962643.5942887326
351.60000000001145,1095.8281871247648,31504.21977757285,-64.43941480993152,-601.1932052312242,961950.9845514329
351.70000000001147,1089.412820078757,31444.26118234459,-64.15367046007817,-599.5859522825768,961261.017395951
