t[s],x[m],y[m],vx[m/s],vy[m/s],mass[kg]
334.00000000000745,2819.3565589482732,45560.35970906322,-149.36546164514513,-1075.6867556209202,1152289.3588840973
334.10000000000747,2804.5052955620545,45453.23233022342,-148.5126338621866,-1071.2737883979873,1150546.8431246758
334.2000000000075,2789.7397542321974,45346.54331034158,-147.6554132985726,-1066.8901988184555,1148816.013637947
334.3000000000075,2775.0602973208015,45240.28974763259,-146.79456911395792,-1062.5356270899129,1147096.746577677
334.40000000000754,2760.4672190740516,45134.468771563836,-145.93078246749712,-1058.2097606875006,1145388.9303935897
334.50000000000756,2745.960753929359,45029.07754195697,-145.06465144692785,-1053.912296068654,1143692.4537201414
334.6000000000076,2731.54108382857,44924.11324810168,-144.19670100788778,-1049.6429385528318,1142007.2056510283
334.7000000000076,2717.208344655988,44819.57310789844,-143.32739172582205,-1045.4014020324503,1140333.0759384774
334.8000000000076,2702.962631905182,44715.45436703824,-142.45712750806177,-1041.1874086019504,1138669.9551442312
334.90000000000765,2688.8040056661616,44611.75429822433,-141.5862623902079,-1037.00068813912,1137017.7347529437
335.0000000000077,2674.7324950135535,44508.47020043799,-140.71510652608205,-1032.8409778634843,1135376.3072563552
335.1000000000077,2660.7481018668136,44405.59939824904,-139.8439314673976,-1028.7080218894805,1133745.5662147587
335.2000000000077,2646.8508043850366,44303.139241170364,-138.9729748177688,-1024.601570786793,1132125.4063008353
335.30000000000774,2633.040559951484,44201.08710305474,-138.1024443355281,-1020.5213811562181,1130515.723329811
335.40000000000776,2619.317307796394,44099.4403815321,-137.23252155089816,-1016.467215226452,1128916.414279014
335.5000000000078,2605.680971300872,43998.1964974846,-136.36336495521923,-1012.4388404750014,1127327.3772992338
335.6000000000078,2592.1314600195687,43897.352894557116,-135.49511281303398,-1008.4360292748238,1125748.5117197465
335.70000000000783,2578.668671455392,43796.9070387004,-134.6278856417647,-1004.4585585671599,1124179.7180484657
335.80000000000786,2565.292492615554,43696.856417744384,-133.7617883983827,-1000.5062095602209,1122620.8979683497
335.9000000000079,2552.002801374776,43597.198540999096,-132.89691240777617,-996.5787674528486,1121071.9543309489
336.0000000000079,2538.7994676684366,43497.930938880905,-132.03333706339305,-992.676021181913,1119532.7911477787
336.1000000000079,2525.6823545357265,43399.05116256171,-131.1711313271009,-988.797763191998,1118003.3135800557
336.20000000000795,2512.651319030526,43300.55678363913,-130.31035505200745,-984.9437892258164,1116483.4279272088
336.30000000000797,2499.706213015609,43202.44539382575,-129.45106014916772,-981.1138981337583,1114973.0416144936
336.400000000008,2486.8468838539466,43104.71460465565,-128.59329161662416,-977.3078917009898,1113472.0631799588
336.500000000008,2474.0731750092423,43007.362047206596,-127.73708844704097,-973.5255744905727,1111980.40226096
336.60000000000804,2461.3849265664153,42910.385371836484,-126.88248442826905,-969.7667537011464,1110497.9695803735
336.70000000000806,2448.781975681467,42813.7822479327,-126.02950884948218,-966.031239037802,1109024.6769326266
336.8000000000081,2436.264156969064,42717.55036367321,-125.17818712403071,-962.3188425948733,1107560.4371696366
336.9000000000081,2423.83130283518,42621.68742579826,-124.32854133884129,-958.6293787494676,1106105.1641867256
337.00000000000813,2411.4832437612768,42526.1911593918,-123.48059073903067,-954.9626640646568,1104658.7729085688
337.10000000000815,2399.219808545739,42431.05930767166,-122.63435215537739,-951.3185172013436,1103221.1792752147
337.2000000000082,2387.0408245075996,42336.28963178787,-121.78984038139303,-947.6967588379079,1101792.300228209
337.3000000000082,2374.9461176570057,42241.87991062819,-120.94706850593896,-944.0972115968221,1100372.053696848
337.4000000000082,2362.9355128363427,42147.827940630435,-120.10604820663231,-940.5196999775083,1098960.358584576
337.50000000000824,2351.008833835476,42054.13153560096,-119.26679000866676,-936.9640502947738,1097557.1347555423
337.60000000000827,2339.165903484163,41960.78852653874,-118.42930351312738,-933.4300906222412,1096162.3030213264
337.7000000000083,2327.4065437243235,41867.79676146471,-117.59359759839776,-929.917650740239,1094775.7851278386
337.8000000000083,2315.73057566454,41775.15410525595,-116.75968059783303,-926.4265620876806,1093397.5037423985
337.90000000000833,2304.1378196188903,41682.8584394842,-115.9275604564978,-922.9566577175111,1092027.382440997
338.00000000000836,2292.6280951319463,41590.907662258665,-115.09724486943813,-919.5077722553407,1090665.345695742
338.1000000000084,2281.2012209915797,41499.29968807257,-114.26874140366473,-916.0797418609319,1089311.318862486
338.2000000000084,2269.857015231003,41408.03244765334,-113.44205760576823,-912.6724041922394,1087965.2281686394
338.3000000000084,2258.595295121317,41317.10388781617,-112.61720109686016,-909.2855983717361,1086627.0007011655
338.40000000000845,2247.4158771556836,41226.511971320695,-111.79417965633375,-905.91916495479,1085296.5643947562
338.50000000000847,2236.3185770261075,41136.25467673071,-110.97300129576195,-902.5729458998792,1083973.848020187
338.6000000000085,2225.303209593698,41046.32999827666,-110.1536743240946,-899.2467845404612,1082658.7811728495
338.7000000000085,2214.3695888531797,40956.73594572083,-109.33620740517962,-895.9405255583283,1081351.2942614576
338.80000000000854,2203.5175278923284,40867.470544225,-108.52060960851166,-892.6540149583029,1080051.3184969283
338.90000000000856,2192.746838846928,40778.53183422059,-107.70689045400525,-889.3871000441436,1078758.785881429
339.0000000000086,2182.0573328517785,40689.91787128103,-106.89505995149489,-886.1396293955451,1077473.6291975952
339.1000000000086,2171.4488199882203,40601.626725996415,-106.08512863558197,-882.9114528461301,1076195.7819979105
339.20000000000863,2160.9211092285827,40513.65648385018,-105.27710759637448,-879.7024214623444,1074925.1785942498
339.30000000000865,2150.4740083779225,40426.00524509786,-104.47100850660134,-876.5123875231715,1073661.7540475805
339.4000000000087,2140.10732401337,40338.6711246478,-103.66684364552593,-873.3412045005998,1072405.4441578216
339.5000000000087,2129.8208614213668,40251.65225194372,-102.86462592003313,-870.1887270407784,1071156.1854538545
339.6000000000087,2119.6144245330447,40164.94677084914,-102.06436888321977,-867.0548109458049,1069913.9151836878
339.70000000000874,2109.487815857967,40078.552839533535,-101.26608675077951,-863.9393131560981,1068678.5713047679
339.80000000000877,2099.440836416423,39992.46863036021,-100.46979441543826,-860.8420917333128,1067450.092474437
339.9000000000088,2089.4732856704563,39906.69232977583,-99.6755074596662,-857.7630058437568,1066228.4180405345
340.0000000000088,2079.5849614537697,39821.22213820161,-98.88324216686537,-854.701915742279,1065013.488032138
340.10000000000883,2069.775659900649,39736.056269925946,-98.09301553120818,-851.6586827565976,1063805.2431504447
340.20000000000886,2060.045175374021,39651.19295299874,-97.30484526628142,-848.6331692720439,1062603.6247597868
340.3000000000089,2050.3933003927536,39566.63042912707,-96.51874981267177,-845.6252387166971,1061408.5748787816
340.4000000000089,2040.8198255582925,39482.36695357238,-95.73474834461271,-842.6347555468931,1060220.0361716119
340.5000000000089,2031.3245394807127,39398.40079504907,-94.9528607757983,-839.6615852330866,1059037.9519394361
340.60000000000895,2021.907228704267,39314.73023562446,-94.17310776445673,-836.705594246055,1057862.2661119248
340.70000000000897,2012.5676776324906,39231.35357062012,-93.3955107177654,-833.766650043428,1056692.9232389203
340.800000000009,2003.3056684529226,39148.26910851447,-92.62009179567949,-830.8446210565321,1055529.8684822202
340.900000000009,1994.120981061499,39065.475170846716,-91.84687391423714,-827.9393766775424,1054373.0476074794
341.00000000000904,1985.0133929866593,38982.97009212202,-91.07588074839707,-825.0507872469298,1053222.4069762311
341.10000000000906,1975.9826793132136,38900.7522197179,-90.30713673445736,-822.1787240411983,1052077.8935380229
341.2000000000091,1967.0286126060037,38818.819913791805,-89.5406670720984,-819.3230592609069,1050939.4548226662
341.3000000000091,1958.150962833395,38737.17154718991,-88.77649772608771,-816.483666018969,1049807.0389325991
341.40000000000913,1949.349497290627,38655.805505356984,-88.0146554276797,-813.660418329226,1048680.5945353564
341.50000000000915,1940.623980523053,38574.720186247454,-87.25516767573939,-810.8531910952922,1047560.0708561499
341.6000000000092,1931.9741742492915,38493.914000237484,-86.49806273761541,-808.061860099667,1046445.4176705536
341.7000000000092,1923.399837284313,38413.38537003817,-85.74336964978475,-805.2863019931121,1045336.5852972927
341.8000000000092,1914.9007254624842,38333.132730609745,-84.99111821828836,-802.5263942842938,1044233.5245911359
341.90000000000924,1906.4765915605867,38253.154529076775,-84.24133901897486,-799.7820153296861,1043136.1869358871
342.00000000000927,1898.12718522083,38173.4492246444,-83.49406339756696,-797.0530443237376,1042044.5242374768
342.1000000000093,1889.8522528738736,38094.01528851547,-82.74932346956363,-794.3393612892978,1040958.48891715
342.2000000000093,1881.6515376618747,38014.851203808634,-82.00715211998899,-791.6408470683066,1039878.03390475
342.30000000000933,1873.524779361575,37935.95546547736,-81.26758300299765,-788.957383312744,1038803.112632096
342.40000000000936,1865.4717143074404,37857.326580229776,-80.53065054134501,-786.2888524758431,1037733.6790264521
342.5000000000094,1857.4920753148674,37778.96306644942,-79.7963899257294,-783.6351378035649,1036669.6875040878
342.6000000000094,1849.5855916034661,37700.863454116785,-79.06483711401243,-780.9961233263383,1035611.0929639273
342.7000000000094,1841.751988720434,37623.02628473168,-78.33602883032259,-778.3716938510642,1034557.8507812865
342.80000000000945,1833.9909884640292,37545.450111236336,-77.61000256404664,-775.7617349533868,1033509.9168016957
342.90000000000947,1826.302308807158,37468.133497939314,-76.88679656871237,-773.1661329702333,1032467.2473348075
343.0000000000095,1818.6856638210813,37391.075020440054,-76.16644986076584,-770.5847749926223,1031429.7991483875
343.1000000000095,1811.1407635992568,37314.27326555418,-75.44900221824547,-768.0175488587448,1030397.5294623872
343.20000000000954,1803.6673141813214,37237.726831239444,-74.73449417935508,-765.4643431473183,1029370.3959430973
343.30000000000956,1796.2650174772277,37161.43432652232,-74.02296704093725,-762.9250471712164,1028348.3566973804
343.4000000000096,1788.9335711915428,37085.39437142519,-73.31446285684824,-760.399550971376,1027331.3702669814
343.5000000000096,1781.6726687479193,37009.605596894085,-72.60902443623507,-757.8877453109844,1026319.3956229144
343.60000000000963,1774.4819992137477,36934.06664472709,-71.90669534171536,-755.3895216699481,1025312.3921599255
343.70000000000965,1767.3612472250018,36858.77616750313,-71.20751988745978,-752.9047722396459,1024310.3196910297
343.8000000000097,1760.310092911284,36783.73282851133,-70.51154313717733,-750.4333899179693,1023313.1384421203
343.9000000000097,1753.3282118210839,36708.93530168087,-69.81881090200268,-747.9752683046503,1022320.809046651
344.0000000000097,1746.4152748472554,36634.38227151118,-69.12936973828535,-745.530301696882,1021333.2925403885
344.10000000000974,1739.5709481527274,36560.07243300266,-68.4432669452795,-743.0983850852322,1020350.5503562343
344.20000000000977,1732.794893096454,36486.00449158767,-67.76055056273375,-740.6794141498528,1019372.5443191158
344.3000000000098,1726.086766159616,36412.17716306197,-67.08126936837954,-738.273285256989,1018399.2366409447
344.4000000000098,1719.4462188720843,36338.58917351639,-66.40547287531678,-735.8798954557875,1017430.589915642
344.50000000000983,1712.8728977391547,36265.23925926885,-65.7332113292955,-733.4991424754103,1016466.5671142284
344.60000000000986,1706.3664441685655,36192.1261667966,-65.0645357058915,-731.1309247224522,1015507.1315799794
344.7000000000099,1699.926494397808,36119.248652668735,-64.39949770757454,-728.7751412786677,1014552.2470236447
344.8000000000099,1693.5526794217412,36046.60548347884,-63.73814976066696,-726.4316918990085,1013601.8775187292
344.9000000000099,1687.2446249205223,35974.19543577784,-63.08054501219081,-724.1004770099726,1012655.9874968367
345.00000000000995,1681.0019511878622,35902.01729600701,-62.42673732660127,-721.78139770827,1011714.5417430745
345.10000000000997,1674.8242730596219,35830.06986043103,-61.77678128240404,-719.4743557598046,1010777.5053915186
345.20000000001,1668.7111998427565,35758.351935071136,-61.130732168654355,-717.1792535989762,1009844.8439207368
345.30000000001,1662.662335244623,35686.8623356383,-60.48864598133506,-714.8959943283043,1008916.5231493727
345.40000000001004,1656.6772773026619,35615.599887466466,-59.85057941961104,-712.6244817183748,1007992.5092317851
345.50000000001006,1650.7556183144661,35544.56342544565,-59.216589881957304,-710.3646202081139,1007072.7686537466
345.6000000000101,1644.8969447682503,35473.75179395511,-58.5867354621578,-708.1163149053884,1006157.2682281974
345.7000000000101,1639.100837273733,35403.16384679632,-57.96107494517188,-705.8794715879361,1005245.975091055
345.80000000001013,1633.3668704934466,35332.79844712586,-57.3396678028654,-703.6539967046277,1004338.8566970794
345.90000000001015,1627.6946130744864,35262.65446738815,-56.72257418960301,-701.4397973770614,1003435.8808157919
346.0000000000102,1622.0836275807164,35192.730789248,-56.1098549376984,-699.2367814014924,1002537.0155274488
346.1000000000102,1616.5334704254446,35123.02630352289,-55.5015715527189,-697.0448572510986,1001642.2292190675
346.2000000000102,1611.0436918045805,35053.53991011503,-54.89778620864071,-694.8639340785834,1000751.4905805051
346.30000000001024,1605.6138356302954,34984.27051794312,-54.29856174285113,-692.6939217191176,999864.76860059
346.40000000001027,1600.243439465196,34915.21704487376,-53.70396165099369,-690.5347306936212,998982.0325633041
346.5000000000103,1594.9320344570308,34846.37841765252,-53.11405008165223,-688.3862722123862,998103.2520440168
346.6000000000103,1589.6791452739437,34777.75357183462,-52.52889183086962,-686.2484581790408,997228.3969057697
346.70000000001033,1584.4842900402941,34709.34145171513,-51.94855233649683,-684.1212011948568,996357.4372956103
346.80000000001036,1579.3469802730574,34641.14101025879,-51.37309767236784,-682.0044145633995,995490.3436409767
346.9000000000104,1574.266720818828,34573.15120902924,-50.80259454229566,-679.8980122955218,994627.0866461314
347.0000000000104,1569.2430097914394,34505.37101811777,-50.2371102738847,-677.8019091147016,993767.6372886433
347.1000000000104,1564.275338510224,34437.799416071495,-49.67671281215454,-675.7160204627239,992911.9668159193
347.20000000001045,1559.363191438927,34370.43538982092,-49.12147071296984,-673.6402625057054,992060.0467417834
347.30000000001047,1554.5060461253,34303.27793460688,-48.57145313627123,-671.5745521404646,991211.8488431042
347.4000000000105,1549.7033731413896,34236.326053906756,-48.026729839101655,-669.5188070012333,990367.3451564698
347.5000000000105,1544.9546360245474,34169.57875936008,-47.48737116842248,-667.472945466712,989526.5079749102
347.60000000001054,1540.259291219176,34103.03507069334,-46.953448053713586,-665.4368866674656,988689.3098446666
347.70000000001056,1535.6167880192409,34036.694015643974,-46.4250319993515,-663.410550493661,987855.7235620081
347.8000000000106,1531.0265685115648,33970.55462988366,-45.90219507675933,-661.3938576031428,987025.7221700947
347.9000000000106,1526.4880675199327,33904.61595694068,-45.3850099163221,-659.3867294298469,986199.278955887
348.00000000001063,1522.0007125500265,33838.87704812142,-44.87354969906114,-657.389088192551,985376.3674471017
348.10000000001065,1517.5639237352204,33773.33696243103,-44.36788814806055,-655.4008569039569,984556.9614092151
348.2000000000107,1513.1771137832566,33707.994766493015,-43.86809951963902,-653.4219593801066,983741.0348425099
348.3000000000107,1508.8396879238305,33642.849534468005,-43.374258594259764,-651.4523202501254,982928.5619791707
348.4000000000107,1504.5510438571134,33577.90034797138,-42.88644066717142,-649.491864966292,982119.5172804238
348.50000000001074,1500.3105717032363,33513.146295989936,-42.40472153877223,-647.5405198144317,981313.8754337236
348.60000000001077,1496.1176539527673,33448.58647479747,-41.92917750468997,-645.5982119246279,980511.6113499845
348.7000000000108,1491.9716654182105,33384.21998786925,-41.45988534556968,-643.6648692822505,979712.7001608592
348.8000000000108,1487.8719731865544,33320.04594579532,-40.99692231656113,-641.7404207392952,978917.1172160617
348.90000000001083,1483.8179365729047,33256.06346619272,-40.5403661364977,-639.8247960260301,978124.8380807379
349.00000000001086,1479.808907075229,33192.27167361642,-40.09029497675827,-637.9179257629442,977335.8385328801
349.1000000000109,1475.8442283302486,33128.66969946912,-39.64678744980341,-636.019741472994,976550.0945607895
349.2000000000109,1471.923236070511,33065.25668190971,-39.20992259737699,-634.1301755941415,975767.5823605834
349.3000000000109,1468.0452580826745,33002.0317657605,-38.779779878364195,-632.2491614921772,974988.2783337488
349.40000000001095,1464.209614167045,32938.99410241312,-38.35643915629666,-630.3766334738243,974212.1590847429
349.50000000001097,1460.4156160983955,32876.14284973311,-37.93998068649529,-628.5125268001148,973439.2014186394
349.600000000011,1456.6625675881114,32813.4771719631,-37.53048510284116,-626.6567777000317,972669.3823388218
349.700000000011,1452.949764247695,32750.996239624663,-37.128033404164654,-624.8093233844103,971902.6790447233
349.80000000001104,1449.2764935536707,32688.699229418653,-36.73270694024286,-622.970102060089,971139.0689296137
349.90000000001106,1445.642034813931,32626.585324124222,-36.344587397395095,-621.1390529443033,970378.5295784335
350.0000000000111,1442.0456591355644,32564.653712496292,-35.963756783666135,-619.3161162793131,969621.0387656754
350.1000000000111,1438.4866293942057,32502.903589161568,-35.59029741358679,-617.5012333472532,968866.5744533136
350.20000000001113,1434.9642002049557,32441.334154513046,-35.22429189250098,-615.6943464851998,968115.1147887807
350.30000000001115,1431.4776178949107,32379.944614603002,-34.8658231004487,-613.8953991004396,967366.638102993
350.4000000000112,1428.0261204773515,32318.734181034408,-34.514974175593764,-612.1043356859332,966621.1229084246
350.5000000000112,1424.608937627633,32257.702070850813,-34.17182849718532,-610.3211018359607,965878.5478972294
350.6000000000112,1421.2252906608287,32196.84750642462,-33.83646966804189,-608.5456442619375,965138.8919394133
350.70000000001124,1417.874392511174,32136.16971534378,-33.50898149654668,-606.777910808388,964402.1340810545
350.80000000001127,1414.5554477203523,32075.667930061427,-33.18944790821624,-605.0178528235313,963668.253542575
350.9000000000113,1411.2676533379763,32015.341395869047,-32.87794382375877,-603.2653419238103,962937.2076582614
351.0000000000113,1408.010199185732,31955.189374599384,-32.574541522441564,-601.5202126966313,962208.9445925092
351.10000000001133,1404.7822665257959,31895.211133336048,-32.27932659936096,-599.7824126333553,961483.4428504768
351.20000000001136,1401.5830280492034,31835.4059442974,-31.992384765924555,-598.0518903864869,960760.6810905959
351.3000000000114,1398.411647863857,31775.773084703855,-31.713801853462872,-596.3285959354301,960040.6381633539
351.4000000000114,1395.2672814841674,31716.31183664373,-31.443663796897187,-594.6124806012364,959323.2931092952
351.5000000000114,1392.1490758224468,31657.021486937552,-31.182056617205866,-592.9034970617729,958608.6251571425
351.60000000001145,1389.0561691821742,31597.901327000844,-30.92906640272638,-591.2015993670748,957896.6137219847
351.70000000001147,1385.9876912532395,31538.95065270536,-30.68477928934617,-589.5067429548449,957187.238403529
