t[s],x[m],y[m],vx[m/s],vy[m/s],mass[kg]
356.2000000000125,11488.746861084594,47510.93344540279,-149.40246082155423,-1192.393068690532,1559584.9655148748
356.3000000000125,11473.910438623792,47392.17875888858,-148.36422460801035,-1187.5468651421043,1557026.6484217634
356.40000000001254,11459.180015916892,47273.90927453646,-147.30422706899682,-1182.694843521136,1554468.3622925624
356.50000000001256,11444.557568876571,47156.12560258733,-146.2244704032125,-1177.8367194913144,1551910.1276600945
356.6000000000126,11430.044884290155,47038.82838309029,-145.12684586416015,-1172.9721949704476,1549351.9585139721
356.7000000000126,11415.64356974448,46922.018286825114,-144.01314545674882,-1168.1009626517275,1546793.8638079895
356.80000000001263,11401.355062499666,46805.696015888236,-142.88507244812712,-1163.2227093687973,1544235.8486547372
356.90000000001265,11387.180637414798,46689.862304003334,-141.74425084868105,-1158.3371188489818,1541677.9152694768
357.0000000000127,11373.121414020357,46574.51791661765,-140.5922339444044,-1153.4438738568194,1539120.0637132796
357.1000000000127,11359.178362822919,46459.66365083197,-139.43051197439382,-1148.542657856824,1536562.2924757008
357.2000000000127,11345.352310919021,46345.30033520205,-138.26051903896797,-1143.6331562991757,1534004.5989294033
357.30000000001274,11331.64389506863,46231.4288410918,-137.08415850390764,-1138.7149411025157,1531446.9743759695
357.40000000001277,11318.053376587915,46118.050125297836,-135.90518480715195,-1133.7871579396246,1528889.388926085
357.5000000000128,11304.580650497297,46005.16522875413,-134.72726090617923,-1128.8489654370644,1526331.8113368943
357.6000000000128,11291.225260598425,45892.77527271943,-133.553898988722,-1123.899560346966,1523774.2116478612
357.70000000001284,11277.986419756797,45780.881452806316,-132.38840841629053,-1118.938199131121,1521216.5633800868
357.80000000001286,11264.863034768336,45669.48503125278,-131.23384988461893,-1113.9642155353938,1518658.8452110854
357.9000000000129,11251.853735161614,45558.587327881214,-130.09299606721672,-1108.9770337156208,1516101.042072377
358.0000000000129,11238.956905266808,45448.18971020584,-128.96829894805362,-1103.9761767536995,1513543.1456631275
358.1000000000129,11226.17071886754,45338.29358314002,-127.86186399268593,-1098.9612706582718,1510985.154413639
358.20000000001295,11213.493175742855,45228.90037872338,-126.77543124684868,-1093.9320441663547,1508427.0729658166
358.300000000013,11200.922139404658,45120.011546239184,-125.7103633819663,-1088.8883248419781,1505868.911262598
358.400000000013,11188.455375342133,45011.628543029175,-124.66764062524699,-1083.8300321000622,1503310.6833542
358.500000000013,11176.090589100333,44903.75282624257,-123.64786241799352,-1078.7571678660925,1500752.4060359488
358.60000000001304,11163.825463546127,44796.385845681056,-122.6512555420645,-1073.6698056151363,1498194.097431013
358.70000000001306,11151.65769471156,44689.529037829,-121.67768834566112,-1068.5680785205118,1495635.7756225604
358.8000000000131,11139.585025652394,44583.183821090155,-120.72669059167707,-1063.4521673884697,1493077.4574250276
358.9000000000131,11127.60527781729,44477.35159219336,-119.79747835103771,-1058.322288968009,1490519.157364958
359.00000000001313,11115.716379489719,44372.03372368203,-118.88898327571357,-1053.178685113334,1487960.88691993
359.10000000001315,11103.916390938086,44267.23156236701,-117.9998855163213,-1048.021613150179,1485402.6540412018
359.2000000000132,11092.203525988005,44162.94642860039,-117.1286495008185,-1042.8513376661215,1482844.4629635008
359.3000000000132,11080.576169811464,44059.17961621856,-116.27356176541727,-1037.6681238183453,1480286.3142853295
359.4000000000132,11069.032892808822,43955.93239300475,-115.43277002642282,-1032.4722321381319,1477728.205286387
359.50000000001324,11057.572460538753,43853.20600153315,-114.60432270068044,-1027.2639147159791,1475170.130436043
359.60000000001327,11046.193839726755,43751.00166027526,-113.78620811998753,-1022.0434125789664,1472612.0820386775
359.7000000000133,11034.896200452975,43649.32056487277,-112.97639273779765,-1016.8109540249053,1470054.0509581654
359.8000000000133,11023.678914683858,43548.16388950717,-112.1728576911584,-1011.5667536560145,1467496.0273645956
359.90000000001334,11012.541551368502,43447.532788321514,-111.37363315355469,-1006.3110118565044,1464938.001450901
360.00000000001336,11001.483868369298,43347.42839687348,-110.57682999204185,-1001.0439144803127,1462379.9640747088
360.1000000000134,10990.50580153708,43247.85183361819,-109.78066832217779,-995.7656325529534,1459821.9072905234
360.2000000000134,10979.60723344381,43148.802501574806,-108.98568093269611,-990.49332043383,1457270.7759823734
360.3000000000134,10968.787900501675,43050.27750349444,-108.1933294213552,-985.2499808036649,1454735.8632492393
360.40000000001345,10958.047668058474,42952.273959901526,-107.4023244320016,-980.035435929191,1452216.9622628328
360.5000000000135,10947.38651010039,42854.7890072665,-106.61157958084326,-974.849526350261,1449713.8848523444
360.6000000000135,10936.804488848975,42757.81979977957,-105.82021251415414,-969.6920748693227,1447226.446926896
360.7000000000135,10926.301734220991,42661.363511214106,-105.02754627984076,-964.5628856546612,1444754.4681991725
360.80000000001354,10915.87842351231,42565.41733688014,-104.23310708682236,-959.4617433396272,1442297.7718265965
360.90000000001356,10905.534761641222,42469.97849565153,-103.43661871087068,-954.3884122861697,1439856.1840190087
361.0000000000136,10895.270962257116,42375.04423203904,-102.63799384105647,-949.3426361248613,1437429.5336393963
361.1000000000136,10885.087229987535,42280.61181827194,-101.8373226958138,-944.3241376710477,1435017.651821982
361.20000000001363,10874.98374406104,42186.67855634235,-101.03485926494035,-939.3326192958866,1432620.371628372
361.30000000001365,10864.960643505703,42093.241779961936,-100.23100555338709,-934.3677638041365,1430237.5277578493
361.4000000000137,10855.018014084264,42000.298856377936,-99.42629421439659,-929.4292358399789,1427868.9563227054
361.5000000000137,10845.155877087907,41907.8471879969,-98.62136996356637,-924.5166838103976,1425514.4946941012
361.6000000000137,10835.374180071698,41815.8842137684,-97.81697016209607,-919.6297422850049,1423173.9814187447
361.70000000001374,10825.67278957696,41724.40741028802,-97.0139049473785,-914.7680348037912,1420847.2562019655
361.80000000001377,10816.051485849664,41633.41429258785,-96.21303727294706,-909.9311770017414,1418534.159948829
361.9000000000138,10806.50995952982,41542.90241459356,-95.41526319844058,-905.1187799428394,1416234.5348519555
362.0000000000138,10797.047810255359,41452.86936923893,-94.62149274461531,-900.3304535463601,1413948.224512782
362.10000000001384,10787.664547095415,41363.31278824036,-93.83263159944289,-895.5658099857264,1411675.074082168
362.20000000001386,10778.359590702428,41274.230341545925,-93.04956392986946,-890.8244669443096,1409414.9304064247
362.3000000000139,10769.132277050361,41185.619736483655,-92.27313652067043,-886.106050622673,1407167.6421659542
362.4000000000139,10759.98186260759,41097.47871664297,-91.5041444277092,-881.410198406904,1404933.0599955316
362.5000000000139,10750.907530777753,41009.80506053031,-90.74331829836918,-876.7365611265883,1402711.036577663
362.60000000001395,10741.908399430009,40922.59658004508,-89.9913134774393,-872.084804852305,1400501.4267031911
362.700000000014,10732.983529331743,40835.8511188246,-89.2487009826646,-867.4546122048497,1398304.0872961804
362.800000000014,10724.131933291661,40749.56655050755,-88.51596040082765,-862.8456831704175,1396118.8774028884
362.900000000014,10715.352585819373,40663.7407769639,-87.79347472286783,-858.2577354364771,1393945.6581471614
363.00000000001404,10706.644433108831,40578.3717265358,-87.08152710542191,-853.6905042810736,1391784.2926567106
363.10000000001406,10698.006403157178,40493.4573523295,-86.38029951653678,-849.1437420630238,1389634.6459663524
363.2000000000141,10689.437415837634,40408.995630592355,-85.68987319543497,-844.6172173714375,1387496.5849053594
363.3000000000141,10680.936392754595,40324.984559202356,-85.01023083040063,-840.1107138999628,1385369.9779765524
363.40000000001413,10672.502266721054,40241.422156290944,-84.34126033540254,-835.6240291141423,1383254.695234688
363.50000000001415,10664.133990712524,40158.30645901299,-83.6827600852943,-831.1569727795404,1381150.6081711221
363.6000000000142,10655.830546167363,40075.63552247156,-83.03444545162095,-826.7093654142958,1379057.5896107366
363.7000000000142,10647.590950520715,39993.40741879925,-82.39595646647591,-822.2810367230861,1376975.5136257976
363.8000000000142,10639.414263877645,39911.620236393166,-81.76686643069397,-817.8718240608486,1374904.2554699115
363.90000000001424,10631.299594750139,39830.272079296694,-81.14669127506757,-813.4815709647401,1372843.6915336442
364.00000000001427,10623.24610480221,39749.36106671845,-80.5348994792858,-809.110125782484,1370793.699321804
364.1000000000143,10615.253012566924,39668.88533267693,-79.93092235287723,-804.7573404151318,1368754.1574509565
364.2000000000143,10607.319596118377,39588.84302575864,-79.33416448546917,-800.4230691829675,1366724.9456645183
364.30000000001434,10599.445194700382,39509.23230897711,-78.7440141799476,-796.107167815294,1364705.9448618367
364.40000000001436,10591.629209331248,39430.05135972126,-78.1598536913441,-791.8094925584855,1362697.0371370343
364.5000000000144,10583.871102420631,39351.298369782045,-77.58106910615803,-787.5298993921837,1360698.1058231024
364.6000000000144,10576.170396449534,39272.97154544796,-77.00705971097726,-783.2682433408801,1358709.035536756
364.7000000000144,10568.526671778003,39195.06910766123,-76.43724671529908,-779.0243778672909,1356729.7122198802
364.80000000001445,10560.939563656906,39117.58929222776,-75.8710812109723,-774.7981543346648,1354760.0231739657
364.9000000000145,10553.408758529977,39040.530350075045,-75.30805126928784,-770.5894215271923,1352799.857084691
365.0000000000145,10545.933989720372,38963.89054755298,-74.74768809604991,-766.3980252206303,1350849.1040346848
365.1000000000145,10538.515032601912,38887.66816677311,-74.18957118459956,-762.2238077987391,1348907.6555034434
365.20000000001454,10531.151699359272,38811.86150598164,-73.63333242639104,-758.0666079147558,1346975.4043543038
365.30000000001456,10523.84383344347,38736.46887996158,-73.07865915802138,-753.9262602005381,1345052.2448092327
365.4000000000146,10516.591303829242,38661.488620458695,-72.52529614229299,-749.8025950288953,1343138.0724129276
365.5000000000146,10509.393999179374,38586.919076625025,-71.97304649868146,-745.6954383367236,1341232.7839883151
365.60000000001463,10502.25182201785,38512.75861547325,-71.42177161524921,-741.6046115177287,1339336.2775859206
365.70000000001465,10495.164683008912,38439.00562233388,-70.87139008937957,-737.5299313936569,1337448.4524297975
365.8000000000147,10488.13249543306,38365.65850130668,-70.32187575852667,-733.4712102720686,1335569.2088627159
365.9000000000147,10481.155169943626,38292.71567569699,-69.7732548943328,-729.4282560968649,1333698.448293145
366.0000000000147,10474.232609679242,38220.175588427475,-69.22560264384298,-725.4008726951463,1331836.0731462552
366.10000000001475,10467.364705798236,38148.0367024154,-68.67903881006141,-721.3888601207582,1329981.9868207234
366.20000000001477,10460.551333491167,38076.29750090627,-68.13372307070239,-717.3920150912768,1328136.093652619
366.3000000000148,10453.7923485173,38004.956487755124,-67.58984973867298,-713.4101315114754,1326298.2988870821
366.4000000000148,10447.087584300238,37934.01218764785,-67.04764217061411,-709.4430010727187,1324468.5086579495
366.50000000001484,10440.43684960716,37863.4631462564,-66.5073469307692,-705.4904139145073,1322646.6299749603
366.60000000001486,10433.839926825496,37793.30793032323,-65.96922781663457,-701.5521593317166,1320832.5707177112
366.7000000000149,10427.296570840459,37723.54512767232,-65.43355985037711,-697.6280265091273,1319026.2396351679
366.8000000000149,10420.806508506857,37654.173347145945,-64.90062333601526,-693.7178052636992,1317227.546349276
366.9000000000149,10414.369438699157,37585.19121846847,-64.3706980769923,-689.8212867747798,1315436.4013610755
367.00000000001495,10407.98503291494,37516.59739204017,-63.84405784218297,-685.9382642830392,1313652.7160576954
367.100000000015,10401.652936398867,37448.390538666135,-63.320965160728285,-682.0685337403393,1311876.4027186944
367.200000000015,10395.372769747111,37380.56934922665,-62.80166651755693,-678.2118943948708,1310107.3745203859
367.300000000015,10389.144130945893,37313.13253429679,-62.286388012188205,-674.368149298601,1308345.5455370536
367.40000000001504,10382.966597792534,37246.07882372407,-61.775331533591,-670.5371057271972,1306590.83073827
367.50000000001506,10376.839730643169,37179.406966173476,-61.26867149365197,-666.7185755059581,1304843.145981873
367.6000000000151,10370.763075428034,37113.1157286496,-60.766552151348435,-662.9123752387158,1303102.4080025041
367.7000000000151,10364.736166873117,37047.2038960056,-60.26908554917534,-659.1183264399925,1301368.5343959418
367.80000000001513,10358.758531865828,36981.67027044822,-59.776350072895454,-655.3362555737657,1299641.4435997482
367.90000000001515,10352.829692902287,36916.51367104774,-59.28838963540884,-651.5659940048636,1297921.054870993
368.0000000000152,10346.949171554726,36851.73293326062,-58.80521347561218,-647.8073778712113,1296207.2882619738
368.1000000000152,10341.11649189936,36787.326908471936,-58.32679655367201,-644.0602478867825,1294500.0645949605
368.2000000000152,10335.331183847831,36723.29446356332,-57.85308051529386,-640.3244490861752,1292799.3054369998
368.30000000001525,10329.592786328887,36659.63448051109,-57.38397518944459,-636.5998305222242,1291104.933075773
368.40000000001527,10323.900850271219,36596.34585601829,-56.91936057668353,-632.8862449280163,1289416.870497383
368.5000000000153,10318.254941343332,36533.42750118287,-56.45908927886583,-629.1835483541631,1287735.0413667753
368.6000000000153,10312.654642411773,36470.878341203745,-56.0029893155766,-625.4915997912909,1286059.3700113036
368.70000000001534,10307.099555684945,36408.69731512509,-55.55086726828982,-621.8102607865213,1284389.7814077123
368.80000000001536,10301.589304515948,36346.883375618956,-55.1025116899633,-618.1393950613588,1282726.201172585
368.9000000000154,10296.123534844388,36285.43548880526,-54.657696715598135,-614.4788681369632,1281068.5555560784
369.0000000000154,10290.701916263568,36224.35263410812,-54.21618580820693,-610.8285469713771,1279416.7714385681
369.1000000000154,10285.324142706104,36163.63380414693,-53.777735574632786,-607.1882996119771,1277770.7763296599
369.20000000001545,10279.989932747434,36103.278004660395,-53.34209958670095,-603.5579948653025,1276130.4983689091
369.3000000000155,10274.699029532912,36043.28425446184,-52.90903214521524,-599.9375019855225,1274495.8663275125
369.4000000000155,10269.451200340187,35983.65158542362,-52.478291927261935,-596.3266903821726,1272866.8096102187
369.5000000000155,10264.246235794079,35924.37904248888,-52.04964546107559,-592.7254293474172,1271243.2582567353
369.60000000001554,10259.083948756352,35865.46568370858,-51.622870377260334,-589.1335878029747,1269625.1429419797
369.70000000001556,10253.964172917316,35806.91058030188,-51.19775839034952,-585.55103406693,1268012.3949746408
369.8000000000156,10248.886761120275,35748.71281673779,-50.77411797041913,-581.9776356409144,1266404.9462936502
369.9000000000156,10243.851583453212,35690.87149083594,-50.35177667063777,-578.413259018506,1264802.7294623293
370.00000000001563,10238.858525144899,35633.38571388433,-49.93058308312645,-574.857769516117,1263205.6776601386
370.10000000001565,10233.907484304678,35576.254610771524,-49.51040840220404,-571.3110311280361,1261613.7246721215
370.2000000000157,10228.998369546589,35519.47732013076,-49.09114758090053,-567.7729064076286,1260026.8048762814
370.3000000000157,10224.131097539246,35463.052994493075,-48.67272007341989,-564.2432563768986,1258444.8532292563
370.4000000000157,10219.305590522954,35406.98080044641,-48.25507016292862,-560.7219404666672,1256867.8052507516
370.50000000001575,10214.5217738349,35351.259918797456,-47.83816688053639,-557.2088164894761,1255295.5970072537
370.60000000001577,10209.779573482147,35295.88954473276,-47.422003527529206,-553.7037406469824,1253728.1650955735
370.7000000000158,10205.078913800273,35240.868887975455,-47.00659681873375,-550.2065675730771,1252165.4466267552
370.8000000000158,10200.419715233247,35186.19717293413,-46.59198567025778,-546.7171504132472,1250607.3792108442
370.90000000001584,10195.801892267276,35131.873638840145,-46.17822965970129,-543.2353409398443,1249053.9009429337
371.00000000001586,10191.225351548155,35077.89753986995,-45.76540719121198,-539.7609897019681,1247504.9503908122
371.1000000000159,10186.689990208013,35024.26814524918,-45.35361340142375,-536.2939462076616,1245960.4665844187
371.2000000000159,10182.195694423479,34970.98473933567,-44.9429578453329,-532.8340591351107,1244420.3890071965
371.3000000000159,10177.742338223128,34918.04662167881,-44.53356200351441,-529.3811765685884,1242884.6575893096
371.40000000001595,10173.329782557754,34865.45310705341,-44.125556653745434,-525.9351462540467,1241353.2127025754
371.500000000016,10168.957874642645,34813.20352546655,-43.71907915108764,-522.4958158685673,1239825.9951568658
371.600000000016,10164.626447576566,34761.29722213681,-43.31427066078904,-519.063033297396,1238302.9461976525
371.700000000016,10160.335320237764,34709.73355744561,-42.91127338802058,-515.6366469120044,1236784.0075043144
371.80000000001604,10156.084297453015,34658.51190686135,-42.51022784748807,-512.2165058425879,1235269.1211887987
371.90000000001606,10151.873170431576,34607.63166083749,-42.11127021438757,-508.8024602386057,1233758.2297942261
372.0000000000161,10147.701717451971,34557.092224686356,-41.71452979604477,-505.3943615113887,1232251.2762930577
372.1000000000161,10143.569704785878,34506.89301843101,-41.32012666094004,-501.9920625534773,1230748.2040844879
372.20000000001613,10139.476887840006,34457.033476638,-40.92816945871953,-498.59541793014904,1229248.9569907999
372.30000000001615,10135.423012493879,34407.51304823405,-40.53875346128628,-495.2042840395363,1227753.4792525047
372.4000000000162,10131.407816608758,34358.33119631017,-40.15195885120683,-491.8185192387606,1226261.7155221726
372.5000000000162,10127.431031680806,34309.48739791672,-39.76784927952195,-488.4379839345769,1224773.6108569705
372.6000000000162,10123.492384609739,34260.98114385291,-39.386470710673656,-485.0625406380824,1223289.1107100002
372.70000000001625,10119.591599552967,34212.8119384545,-39.00785056772137,-481.6920539840505,1221808.1609206246
372.80000000001627,10115.728399834328,34164.97929938286,-38.63199718637813,-478.3263907163646,1220330.7077040332
372.9000000000163,10111.902509876156,34117.48275741868,-38.25889958172184,-474.9654196418095,1218856.6976403482
373.0000000000163,10108.113657123477,34070.32185626317,-37.8885275267887,-471.6090115551109,1217386.0776636074
373.10000000001634,10104.361573929707,34023.49615234931,-37.52083193769905,-468.2570391385713,1215918.7950509621
373.20000000001636,10100.645999374152,33977.00521466532,-37.15574555556274,-464.909376839937,1214454.797412418
373.3000000000164,10096.96668098303,33930.848624592094,-36.793183911218684,-461.5659007322404,1212994.0326814118
373.4000000000164,10093.323376327537,33885.025975756165,-36.43304655493822,-458.2264883593139,1211536.4491064607
373.5000000000164,10089.715854474576,33839.53687389912,-36.07521852961219,-454.89101857048337,1210081.9952440572
373.60000000001645,10086.143897268306,33794.380936764355,-35.71957206269533,-451.5593713476474,1208630.6199529034
373.7000000000165,10082.607300423373,33749.5577940016,-35.36596844933765,-448.23142762757044,1207182.2723894955
373.8000000000165,10079.1058744137,33705.067087089425,-35.01426009672044,-444.9070691217877,1205736.9020049872
