t[s],x[m],y[m],vx[m/s],vy[m/s],mass[kg]
356.2000000000125,11488.733810856738,47510.860920524974,-149.53296310010566,-1193.1183174687176,1559904.7538680444
356.3000000000125,11473.872112924779,47391.96080344814,-148.61697931959037,-1189.0011707683163,1557666.2358824993
356.40000000001254,11459.103824006525,47273.47281370845,-147.68288918254936,-1184.87989739691,1555427.7538334255
356.50000000001256,11444.430589282832,47155.3973877433,-146.7323472369161,-1180.7542596515332,1553189.3229424688
356.6000000000126,11429.853900282189,47037.734986244956,-145.76689000643543,-1176.6240149834648,1550950.9533338612
356.7000000000126,11415.375105465218,46920.48609432151,-144.7879481696986,-1172.4889192344906,1548712.6512234686
356.80000000001263,11400.99541971578,46803.6512214281,-143.7968574943718,-1168.3487289340667,1546474.419859891
356.90000000001265,11386.715932847846,46687.230901120565,-142.79486867933096,-1164.2032030753455,1544236.2602669136
357.0000000000127,11372.537617227934,46571.225690681094,-141.78315619912698,-1160.052104394688,1541998.1718270238
357.1000000000127,11358.461334602838,46455.63617065459,-140.76282625095746,-1155.8952002650642,1539760.1527379784
357.2000000000127,11344.487842213332,46340.46294432544,-139.73492389506825,-1151.732263291488,1537522.2003681418
357.30000000001274,11330.6177749625,46225.70664243486,-138.7006725083116,-1147.5630189058008,1535284.3090867624
357.40000000001277,11316.8516098027,46111.36793197849,-137.66165159801002,-1143.3871045636809,1533046.4681884833
357.5000000000128,11303.18967010392,45997.44751586724,-136.61939698778832,-1139.2041611125271,1530808.6661342154
357.6000000000128,11289.632130442722,45883.94613223661,-135.57539661198666,-1135.0138363063502,1528570.8910206736
357.70000000001284,11276.179021758153,45770.864553445084,-134.53108684569804,-1130.8157879152398,1526333.1309836728
357.80000000001286,11262.83023683654,45658.20358479971,-133.48784921613063,-1126.6096864537546,1524095.3745385807
357.9000000000129,11249.585536088547,45545.96406304695,-132.44700747993087,-1122.3952175275622,1521857.6108606716
358.0000000000129,11236.444553583315,45434.14685466666,-131.40982505232196,-1118.172083802914,1519619.8300087273
358.1000000000129,11223.40680330581,45322.752854005834,-130.3775027750503,-1113.9400066082217,1517382.0230957102
358.20000000001295,11210.47168560469,45211.782981287724,-129.3511770111865,-1109.6987271810603,1515144.1824106998
358.300000000013,11197.638493799115,45101.23818052998,-128.3319180557525,-1105.4480075773977,1512906.3014965376
358.400000000013,11184.906420913923,44991.11941740371,-127.32072885191576,-1101.1876312627437,1510668.3751877889
358.500000000013,11172.274566513615,44881.42767706298,-126.31854400308744,-1096.917403407249,1508430.3996136894
358.60000000001304,11159.741943606448,44772.163961972125,-125.32622907167573,-1092.6371509085832,1506192.3721707384
358.70000000001306,11147.3074855909,44663.32928975535,-124.34458015548053,-1088.3467221677424,1503954.291469512
358.8000000000131,11134.970053217621,44554.92469109097,-123.37432373278091,-1084.045986643766,1501716.1572601243
358.9000000000131,11122.728441540914,44446.9512076696,-122.41611676707575,-1079.7348342137689,1499477.9703405702
359.00000000001313,11110.581386834692,44339.409890233124,-121.47054706221193,-1075.4131743647126,1497239.7324519427
359.10000000001315,11098.527573448862,44232.30179670882,-120.53813385829464,-1071.0809352430051,1495001.4461642415
359.2000000000132,11086.565640583027,44125.627990450084,-119.61932865834636,-1066.7380625873773,1492763.1147561963
359.3000000000132,11074.694188955507,44019.38953859313,-118.71451627519012,-1062.3845185695516,1490524.7420922075
359.4000000000132,11062.911787346757,43913.58751053653,-117.82401608750305,-1058.0202805660565,1488286.332499178
359.50000000001324,11051.216978997412,43808.22297654821,-116.94808349344416,-1053.6453398831698,1486047.890645679
359.60000000001327,11039.60828784244,43703.29700650267,-116.08691154972685,-1049.259700455439,1483809.4214255607
359.7000000000133,11028.08422456409,43598.810668749014,-115.24063278350252,-1044.8633775365604,1481570.9298477825
359.8000000000133,11016.643292447694,43494.765029109054,-114.40932116396584,-1040.4563963996345,1479332.420933934
359.90000000001334,11005.283993025674,43391.16115000285,-113.59299422019869,-1036.0387910619922,1477093.8996245975
360.00000000001336,10994.004762614959,43287.99962944823,-112.79230410715579,-1031.6152055461835,1474857.2806504625
360.1000000000134,10982.803572204528,43185.27781560505,-112.0119041043066,-1027.2181384318778,1472635.999065635
360.2000000000134,10971.678425488564,43082.993074955484,-111.25146715963999,-1022.8474064956639,1470429.8827532276
360.3000000000134,10960.627362450587,42981.14278751501,-110.51063037978177,-1018.5028744047197,1468238.778848934
360.40000000001345,10949.648463203872,42879.72434638496,-109.78899246714089,-1014.1844113004853,1466062.5361021722
360.5000000000135,10938.739851515798,42778.7351573964,-109.08611688074119,-1009.8918898856182,1463901.0048383174
360.6000000000135,10927.899698017856,42678.17263884215,-108.40153497941195,-1005.6251855424397,1461754.0369071576
360.7000000000135,10917.126223103578,42578.03422128825,-107.73474914277936,-1001.384175539013,1459621.4856400054
360.80000000001354,10906.417699517722,42478.31734745598,-107.08523585855647,-997.1687383227005,1457503.2058149956
360.90000000001356,10895.772454641196,42379.01947216598,-106.4524487652687,-992.9787528999886,1455399.0536300526
361.0000000000136,10885.188872477174,42280.138062335944,-105.8358216402186,-988.814098300361,1453308.8866829418
361.1000000000136,10874.665395344855,42181.67059702383,-105.23477132319141,-984.6746531211157,1451232.5639577669
361.20000000001363,10864.200525288143,42083.61456750891,-104.64870056712333,-980.5602951492652,1449169.9458172414
361.30000000001365,10853.792825207373,41985.967477403305,-104.07700080769345,-976.4709010560244,1447120.8940000313
361.4000000000137,10843.440919722918,41888.726842787415,-103.51905484454912,-972.4063461588831,1445085.271622457
361.5000000000137,10833.143495780156,41791.89019236283,-102.9742394276269,-968.3665042458696,1443062.943183842
361.6000000000137,10822.899303005877,41695.45506761719,-102.44192774278211,-964.3512474563336,1441053.7745748
361.70000000001374,10812.707153826708,41599.41902299595,-101.92149179168219,-960.360446212411,1439057.633087776
361.80000000001377,10802.565923360544,41503.77962607642,-101.41230466164757,-956.3939691952622,1437074.387429183
361.9000000000138,10792.47454909236,41408.5344577404,-100.91374268183442,-952.4516833601986,1435103.9077325063
362.0000000000138,10782.432030346075,41313.68111234191,-100.42518746284144,-948.5334539849217,1433146.0655717917
362.10000000001384,10772.437427564328,41219.21719786738,-99.94602781748473,-944.6391447452763,1431200.7339749811
362.20000000001386,10762.489861408216,41125.140336086064,-99.47566156111783,-940.7686178131637,1429267.7874366024
362.3000000000139,10752.588511689168,41031.44816268891,-99.01349719047522,-936.9217339715634,1427347.10192938
362.4000000000139,10742.73261614511,40938.138327414716,-98.55895544058703,-933.0983527419529,1425438.5549143835
362.5000000000139,10732.921469073124,40845.20849416273,-98.11147071984617,-929.298332519796,1423542.0253493863
362.60000000001395,10723.154419830744,40752.656341091315,-97.67049242380989,-925.5215307141775,1421657.3936951684
362.700000000014,10713.430871217866,40660.47956070251,-97.23548612878147,-921.7678038880864,1419784.541919544
362.800000000014,10703.750277751202,40568.67585991288,-96.80593466664843,-918.0370078962832,1417923.3534989553
362.900000000014,10694.112143842916,40477.24296011107,-96.38133908284837,-914.3289980181256,1416073.713417521
363.00000000001404,10684.516021894946,40386.17859720276,-95.96121947969623,-910.6436290831592,1414235.5081634824
363.10000000001406,10674.961510320183,40295.480521643985,-95.54511574763534,-906.9807555876994,1412408.6257230279
363.2000000000141,10665.448251501455,40205.14649846388,-95.1325881872734,-903.3402318010409,1410592.9555715276
363.3000000000141,10655.975929698921,40115.17430727785,-94.72321802533136,-899.7219118603132,1408788.3886622433
363.40000000001413,10646.544268916134,40025.56174229251,-94.31660782787304,-896.1256498533617,1406994.8174126127
363.50000000001415,10637.153030734695,39936.306612303575,-93.91238181439414,-892.5512998893691,1405212.1356882416
363.6000000000142,10627.802012127042,39847.40674068785,-93.51018607653492,-888.9987161572325,1403440.2387847595
363.7000000000142,10618.491043256508,39758.85996539066,-93.1096887053414,-885.467752971982,1401679.0234077168
363.8000000000142,10609.219985273394,39670.66413890968,-92.71057983113687,-881.9582648097667,1399928.3876507184
363.90000000001424,10599.988728115375,39582.81712827646,-92.31257158018066,-878.4701063321339,1398188.230972006
364.00000000001427,10590.797188320137,39495.31681503641,-91.91539795238448,-875.0031324005002,1396458.4541697002
364.1000000000143,10581.645306857694,39408.16109522822,-91.5188146244306,-871.5571980818478,1394738.9593559315
364.2000000000143,10572.533046989425,39321.347879363544,-91.12259868269086,-868.132158646784,1393029.6499300816
364.30000000001434,10563.460392160387,39234.87509240743,-90.72654829038214,-864.7278695611758,1391330.4305513566
364.40000000001436,10554.427343931045,39148.74067376016,-90.3304822934136,-861.3441864726142,1389641.2071109135
364.5000000000144,10545.433919954106,39062.942577240865,-89.93423976938428,-857.9809651929786,1387961.8867037466
364.6000000000144,10536.480152001688,38977.47877107303,-89.5376795241773,-854.6380616783663,1386292.3776005376
364.7000000000144,10527.56608404763,38892.34723787227,-89.14067954057039,-851.315332007616,1384632.589219657
364.80000000001445,10518.691770409307,38807.54597463621,-88.7431363832408,-848.0126323606071,1382982.4320994911
364.9000000000145,10509.857273952857,38723.07299273647,-88.34496456448936,-844.729818997443,1381341.817871257
365.0000000000145,10501.062664365363,38638.92631791251,-87.94609587494097,-841.4667482395467,1379710.6592324467
365.1000000000145,10492.308016497023,38555.103990267155,-87.54647868340052,-838.2232764535963,1378088.8699210305
365.20000000001454,10483.593408776029,38471.60406426324,-87.14607720995356,-834.9992600391238,1376476.3646905264
365.30000000001456,10474.9189216984,38388.424608721194,-86.74487077630071,-831.7945554204874,1374873.059286031
365.4000000000146,10466.28463639468,38305.563706816814,-86.34285303720527,-828.6090190438073,1373278.8704212836
365.5000000000146,10457.690633274999,38223.01945607888,-85.94003119681473,-825.4425073793342,1371693.7157568228
365.60000000001463,10449.13699075365,38140.78996838592,-85.53642521349016,-822.2948769296012,1370117.513879275
365.70000000001465,10440.623784053985,38058.87336996156,-85.13206699664329,-819.165984243585,1368550.1842818004
365.8000000000147,10432.151084094092,37977.26780136786,-84.72699959894064,-816.055685936991,1366991.6473457066
365.9000000000147,10423.718956453384,37895.971417495995,-84.32127640708774,-812.9638387186621,1365441.8243232225
366.0000000000147,10415.327460419958,37814.9823875537,-83.91496033425501,-809.8902994230064,1363900.6373214172
366.10000000001475,10406.976648118252,37734.29889504887,-83.50812301705204,-806.834925048243,1362368.0092872344
366.20000000001477,10398.666563716273,37653.919137768855,-83.10084401979773,-803.797572800176,1360843.8639935993
366.3000000000148,10390.397242711406,37573.841327754744,-82.69321004867335,-800.7781001411233,1359328.126026553
366.4000000000148,10382.168711293587,37494.063691270385,-82.28531417818232,-797.7763648435634,1357820.720773353
366.50000000001484,10373.98098578437,37414.584468765584,-81.87725509217667,-794.792225047998,1356321.5744114788
366.60000000001486,10365.834072150215,37335.401914833135,-81.46913634154643,-791.8255393244834,1354830.6138984726
366.7000000000149,10357.727965588165,37256.51429815941,-81.06106562050401,-788.8761667372421,1353347.7669625431
366.8000000000149,10349.662650181841,37177.91990146824,-80.65315406323354,-785.9439669117405,1351872.9620938562
366.9000000000149,10341.63809862559,37099.61702145788,-80.24551556251402,-783.0288001035985,1350406.1285364362
367.00000000001495,10333.654272014413,37021.60396873101,-79.83826611176626,-780.1305272686897,1348947.1962806024
367.100000000015,10325.711119697231,36943.87906771763,-79.43152317181828,-777.2490101337921,1347496.0960558613
367.200000000015,10317.808579190878,36866.440656590916,-79.02540506353044,-774.3841112671585,1346052.759324185
367.300000000015,10309.946576152151,36789.287087176075,-78.62003038727312,-771.5356941483922,1344617.1182736005
367.40000000001504,10302.12502440514,36712.41672485237,-78.21551747010459,-768.7036232370414,1343189.1058120215
367.50000000001506,10294.343826021006,36635.82794844844,-77.811983841356,-765.8877640393536,1341768.6555612634
367.6000000000151,10286.602871447287,36559.51915013117,-77.4095457371946,-763.0879831726699,1340355.7018511756
367.7000000000151,10278.902039683826,36483.488735288476,-77.00831763460512,-760.3041484269805,1338950.1797138408
367.80000000001513,10271.241198502315,36407.73512240616,-76.60841181510318,-757.536128823208,1337552.0248777915
367.90000000001515,10263.620204706478,36332.256742939375,-76.209937958374,-754.7837946678311,1336161.1737621992
368.0000000000152,10256.038904429886,36257.05204117902,-75.813002765914,-752.0470176035182,1334777.5634709997
368.1000000000152,10248.497133468421,36182.119474113475,-75.41770961464334,-749.3256706554826,1333401.1317869225
368.2000000000152,10240.994717644386,36107.45751128614,-75.0241582403525,-746.619628273334,1332031.8171653973
368.30000000001525,10233.531473199311,36033.064634649316,-74.63244445074767,-743.928766368245,1330669.5587283191
368.40000000001527,10226.107207212535,35958.939338414784,-74.24265986776601,-741.2529623453075,1329314.2962576542
368.5000000000153,10218.721718042661,35885.08012890168,-73.85489169874448,-738.5920951310036,1327965.9701888808
368.6000000000153,10211.374795789066,35811.48552438211,-73.46922253594342,-735.9460451957616,1326624.521604256
368.70000000001534,10204.066222770682,35738.15405492495,-73.08573018384965,-733.3146945716175,1325289.8922259123
368.80000000001536,10196.79577401932,35665.084262238444,-72.70448751361255,-730.6979268650408,1323962.0244087847
368.9000000000154,10189.56321778493,35592.274699511945,-72.32556234390066,-728.0956272650283,1322640.8611333787
369.0000000000154,10182.368316050188,35519.723931257286,-71.94901734740606,-725.5076825466009,1321326.3459983878
369.1000000000154,10175.21082505197,35447.4305331503,-71.57490998216834,-722.9339810698762,1320018.4232131771
369.20000000001545,10168.090495807286,35375.39309187281,-71.20329244683974,-720.3744127749136,1318717.0375901484
369.3000000000155,10161.00707464139,35303.61020495555,-70.83421165896848,-717.828869172559,1317422.1345370037
369.4000000000155,10153.960303715856,35232.0804806224,-70.4677092553366,-715.297243331532,1316133.6600489304
369.5000000000155,10146.94992155452,35160.8025376362,-70.10382161335372,-712.779429862018,1314851.560700727
369.60000000001554,10139.975663565272,35089.77500514659,-69.74257989247799,-710.2753248960441,1313575.7836388901
369.70000000001556,10133.03726255581,35018.9965225401,-69.38401009460907,-707.7848260649191,1312306.2765736892
369.8000000000156,10126.134449241572,34948.4657392927,-69.02813314237711,-705.307832474032,1311042.9877712452
369.9000000000156,10119.266952744149,34878.18131482517,-68.67496497423498,-702.8442446753016,1309785.86604564
370.00000000001563,10112.434501078624,34808.14191836141,-68.3245166552482,-700.39396463757,1308534.8607510743
370.10000000001565,10105.636821628377,34738.34622878989,-67.97679450246892,-697.9568957152286,1307289.9217740935
370.2000000000157,10098.873641606,34668.79293452835,-67.63180022377584,-695.5329426153611,1306050.9995259047
370.3000000000157,10092.144688499095,34599.48073339198,-67.28953106906181,-693.122011363676,1304818.0449347948
370.4000000000157,10085.449690499829,34530.408332465035,-66.94997999265408,-690.7240092694933,1303591.009438672
370.50000000001575,10078.788376917242,34461.57444797603,-66.61313582585933,-688.338844890035,1302369.8449777418
370.60000000001577,10072.160478571388,34392.977805176604,-66.2789834585361,-685.9664279942583,1301154.5039873272
370.7000000000158,10065.565728168527,34324.61713822396,-65.94750402861119,-683.6066695264497,1299944.9393908484
370.8000000000158,10059.00386065668,34256.49119006698,-65.61867511847326,-681.2594815697884,1298741.1045929664
370.90000000001584,10052.47461356096,34188.598712335974,-65.29247095719766,-678.9247773100649,1297542.9534728979
371.00000000001586,10045.977727298203,34120.938465236,-64.96886262757836,-676.602470999726,1296350.4403779067
371.1000000000159,10039.512945470506,34053.50921744376,-64.64781827696912,-674.2924779224002,1295163.520116973
371.2000000000159,10033.08001513741,33986.30974600796,-64.3293033309638,-671.9947143580376,1293982.147954643
371.3000000000159,10026.678687066513,33919.33883625308,-64.0132807089757,-669.7090975487856,1292806.2796050569
371.40000000001595,10020.308715962432,33852.59528168651,-63.69971104080868,-667.4355456656982,1291635.8712261533
371.500000000016,10013.969860674097,33786.077883908874,-63.3885528833466,-665.1739777763687,1290470.8794140476
371.600000000016,10007.661884380444,33719.78545252752,-63.07976293652415,-662.9243138135524,1289311.261197577
371.700000000016,10001.384554754666,33653.71680507303,-62.773296257779116,-660.6864745448381,1288156.9740330086
371.80000000001604,9995.137644107244,33587.87076691869,-62.46910647422574,-658.4603815434078,1287007.9757989026
371.90000000001606,9988.920929508062,33522.2461712027,-62.167145991828264,-656.2459571599167,1285864.2247911224
372.0000000000161,9982.734192887972,33456.84185875315,-61.86736620089539,-654.0431244955104,1284725.679717984
372.1000000000161,9976.577221120246,33391.65667801555,-61.56971767725774,-651.8518073759883,1283592.299695536
372.20000000001613,9970.449806082392,33326.68948498284,-61.2741503785334,-649.6719303271118,1282464.0442429585
372.30000000001615,9964.351744698899,33261.93914312773,-60.98061383492917,-647.5034185510482,1281340.8732780765
372.4000000000162,9958.282838965491,33197.40452333734,-60.68905733406865,-645.3461979039361,1280222.747112973
372.5000000000162,9952.242895955553,33133.08450384989,-60.399430099381306,-643.2001948745495,1279109.6264496953
372.6000000000162,9946.23172780939,33068.97797019348,-60.111681461630326,-641.0653365640358,1278001.4723760462
372.70000000001625,9940.24915170707,33005.08381512681,-59.82576102319973,-638.9415506666968,1276898.2463614477
372.80000000001627,9934.29498982559,32941.40093858163,-59.54161881480417,-636.828765451783,1275799.9102528724
372.9000000000163,9928.369069281158,32877.92824760701,-59.25920544432692,-634.7269097462646,1274706.4262708328
373.0000000000163,9922.471222057404,32814.66465631515,-58.97847223753336,-632.6359129185448,1273617.7570054217
373.10000000001634,9916.60128492036,32751.609085828844,-58.69937137044751,-630.5557048630817,1272533.8654123964
373.20000000001636,9910.759099321038,32688.760464230258,-58.42185599321999,-628.4862159858803,1271454.7148093008
373.3000000000164,9904.944511286503,32626.117726511176,-58.14588034535394,-626.4273771908233,1270380.2688716208
373.4000000000164,9899.157371300284,32563.679814524497,-57.871399862193705,-624.3791198668048,1269310.4916289658
373.5000000000164,9893.397534173022,32501.445676936935,-57.59837127261782,-622.341375875636,1268245.3474612772
373.60000000001645,9887.66485890423,32439.414269182867,-57.326752687912936,-620.3140775406936,1267184.8010950536
373.7000000000165,9881.959208536047,32377.584553419238,-57.056503681839885,-618.2971576362809,1266128.8175995974
373.8000000000165,9876.280449999853,32315.95549848147,-56.78758536193534,-616.2905493776761,1265077.362383275
