t[s],x[m],y[m],vx[m/s],vy[m/s],mass[kg]
633.9000000000756,-12016.202737864263,58611.51900967255,-150.68656033834156,-2382.8638209704995,699966.8817428354
634.0000000000756,-12031.196562196214,58374.4499084381,-149.93824331950404,-2370.6910123444795,697408.5595144758
634.1000000000756,-12046.115150181462,58138.6028949068,-149.18587985249357,-2358.470135313052,694850.2372601941
634.2000000000756,-12060.958048194118,57903.98280868457,-148.42898012654715,-2346.200862222317,692291.9149821252
634.3000000000757,-12075.724756972702,57670.59452270931,-147.66708778584973,-2333.88285975255,689733.5926824223
634.4000000000757,-12090.414734954124,57438.44294382089,-146.89977981421765,-2321.5157888842004,687175.2703632336
634.5000000000757,-12105.027401585437,57207.53301333507,-146.12666631314084,-2309.0993048581718,684616.94802668
634.6000000000757,-12119.56214060342,56977.86970762195,-145.3473901798273,-2296.6330571312624,682058.6256748346
634.7000000000758,-12134.018303272438,56749.45803868917,-144.56162669017473,-2284.116689327759,679500.3033097041
634.8000000000758,-12148.395211571622,56522.30305477035,-143.76908299183316,-2271.5498391881315,676941.9809332135
634.9000000000758,-12162.692161322893,56296.40984091878,-142.96949751272024,-2258.9321385157396,674383.6585471916
635.0000000000758,-12176.908425251944,56071.783519606535,-142.16263929050828,-2246.263213122405,671825.3361533601
635.1000000000759,-12191.043255974817,55848.42925132917,-141.34830722872167,-2233.5426827736283,669267.0137533231
635.2000000000759,-12205.095888903334,55626.35223521576,-140.52632928516664,-2220.770161134164,666708.6913485613
635.3000000000759,-12219.06554506318,55405.5577096443,-139.69656159846394,-2207.94525571458,664150.368940426
635.4000000000759,-12232.951433819027,55186.050952862366,-138.8588875584714,-2195.067567819335,661592.0465301364
635.5000000000759,-12246.752755501664,54967.83728361268,-138.01321682636927,-2182.1366924968297,659033.7241187784
635.600000000076,-12260.468703932678,54750.9220617635,-137.1594843101385,-2169.1522184917812,656475.4017073051
635.700000000076,-12274.098468842787,54535.31068894348,-136.29764910109324,-2156.1137282001914,653917.0792965391
635.800000000076,-12287.641238180491,54321.00860918077,-135.4276933770353,-2143.0207976270813,651358.756887176
635.900000000076,-12301.096200308239,54108.02130954606,-134.54962127748246,-2129.8729963470764,648800.434479789
636.000000000076,-12314.462546083867,53896.35432079927,-133.66345775628645,-2116.6698874678527,646242.1120748352
636.1000000000761,-12327.739470825547,53686.01321803963,-132.76924741680114,-2103.411027596361,643683.7896726623
636.2000000000761,-12340.926176159006,53477.00362135886,-131.8670533345909,-2090.0959668076853,641125.4672735154
636.3000000000761,-12354.021871746254,53269.33119649723,-130.9569558724829,-2076.72424861632,638567.1448775464
636.4000000000761,-12367.026075476237,53062.99697195969,-130.04203729983124,-2063.342245375407,636017.1486930796
636.5000000000762,-12379.939275332812,52857.98708486501,-129.1319985657454,-2050.098870946856,633501.8302582855
636.6000000000762,-12392.76196600123,52654.2879617368,-128.2269066841797,-2036.9912312821166,631020.3496745713
636.7000000000762,-12405.494651245013,52451.88628450557,-127.32685243783915,-2024.0167723122938,628571.940055474
636.8000000000762,-12418.137844352173,52250.76898481191,-126.43193107159664,-2011.1729969365895,626155.8564899286
636.9000000000763,-12430.692068459432,52050.92323841721,-125.54224107258254,-1998.4574639470566,623771.3753503421
637.0000000000763,-12443.157856761558,51852.336459768834,-124.65788302125816,-1985.867786483742,621417.7935406396
637.1000000000763,-12455.535752615682,51654.996296714664,-123.77895854124759,-1973.4016305416894,619094.427775801
637.2000000000763,-12467.826309549919,51458.890625362,-122.90556934236255,-1961.056713526627,616800.6138912211
637.3000000000764,-12480.030091185075,51264.007545076274,-122.03781635156946,-1948.8308028572521,614535.70618047
637.4000000000764,-12492.147671049597,51070.335374062466,-121.17579864521355,-1936.7217101380822,612299.0767601138
637.5000000000764,-12504.179651931854,50877.86234814719,-120.3198088225732,-1924.7302591527575,610090.6199379885
637.6000000000764,-12516.126653808322,50686.57679566025,-119.47001876467706,-1912.8555248693697,607909.9342541781
637.7000000000764,-12527.989307873515,50496.4672180312,-118.62654065192818,-1901.0957762904948,605756.4876108877
637.8000000000765,-12539.768256045174,50307.52228665723,-117.78948171659256,-1889.449313739668,603629.7607852414
637.9000000000765,-12551.46415041624,50119.73083998722,-116.95894371064352,-1877.9144667000767,601529.2467958098
638.0000000000765,-12563.077652670123,49933.08188066072,-116.13502253883973,-1866.4895932649727,599454.4505552034
638.1000000000765,-12574.609433464853,49747.5645727013,-115.31780794731185,-1855.1730795941464,597404.8885335947
638.2000000000766,-12586.060171791281,49563.16823876337,-114.50738326428858,-1843.9633393793424,595380.0884332708
638.3000000000766,-12597.430554310233,49379.882357431525,-113.70382518952172,-1832.8588133184396,593379.5888738044
638.4000000000766,-12608.721274673142,49197.6965605717,-112.90720362910145,-1821.8579685982438,591402.9390874511
638.5000000000766,-12619.93303283039,49016.60063073312,-112.11758157248197,-1810.9592983857547,589449.6986243982
638.6000000000766,-12631.066534331256,48836.58449860034,-111.33501500866608,-1800.1613213277897,587519.4370675028
638.7000000000767,-12642.122489619118,48657.63824049446,-110.55955287862226,-1789.4625810588589,585611.7337561738
638.8000000000767,-12653.10161332523,48479.75207592274,-109.7912370611326,-1778.861645717197,583726.1775190654
638.9000000000767,-12664.00462356417,48302.91636517586,-109.03010238939135,-1768.3571074688718,581862.3664152641
639.0000000000767,-12674.83224123375,48127.121606971865,-108.27617669579382,-1757.9475820398939,580019.9074836607
639.1000000000768,-12685.585189321997,47952.35843614624,-107.52948088247348,-1747.6317082562625,578198.4165002174
639.2000000000768,-12696.264192223523,47778.61762138705,-106.79002901525962,-1737.4081475918906,576397.5177428446
639.3000000000768,-12706.869975067408,47605.890063014616,-106.05782843884181,-1727.275583724349,574616.8437636183
639.4000000000768,-12717.403263058512,47434.166790804775,-105.33287991103715,-1717.232722098383,572856.0351680766
639.5000000000769,-12727.864780833928,47263.43896185506,-104.61517775416459,-1707.2782894971508,571114.7404013477
639.6000000000769,-12738.25525181457,47093.69785884158,-103.90470980641392,-1697.4110301348082,569392.6155408662
639.7000000000769,-12748.575407809085,46924.93473187782,-103.20155994516304,-1687.6312696376442,567689.5715824928
639.8000000000769,-12758.825989445468,46757.14077971218,-102.50581636382366,-1677.939521656343,566005.5498157486
639.900000000077,-12769.007735680241,46590.30729876668,-101.81746234772986,-1668.3348094549863,564340.2574103478
640.000000000077,-12779.121383206557,46424.42568159388,-101.1364752631595,-1658.81617172803,562693.4074919642
640.100000000077,-12789.167665865914,46259.48741565956,-100.46282659357905,-1649.3826593431613,561064.7185314829
640.200000000077,-12799.147314084437,46095.484082141025,-99.79648218523795,-1640.0333351853294,559453.9142301597
640.300000000077,-12809.061054334197,45932.407354741496,-99.13740249760782,-1630.767273995291,557860.723406605
640.4000000000771,-12818.909608619979,45770.248998520576,-98.48554285781087,-1621.583562209214,556284.8798865293
640.5000000000771,-12828.693693991763,45609.00086874063,-97.84085371784779,-1612.4812977994554,554726.1223951767
640.6000000000771,-12838.414022083116,45448.65490972897,-97.20328091351858,-1603.4595901166224,553184.1944523699
640.7000000000771,-12848.071298675517,45289.20315375566,-96.57276592400918,-1594.5175597330312,551658.8442700998
640.8000000000771,-12857.666223288636,45130.6377199269,-95.94924613119365,-1585.6543382876528,550149.824652588
640.9000000000772,-12867.199488796414,44972.95081309363,-95.33265507777523,-1576.8690683326363,548656.8928987592
641.0000000000772,-12876.67178106876,44816.13472277548,-94.72292272346087,-1568.1609031814862,547179.8107070567
641.1000000000772,-12886.083778638604,44660.181822099585,-94.11997569843166,-1559.529006758961,545718.3440825383
641.2000000000772,-12895.436152393948,44505.08456675431,-93.52373755343721,-1550.972553452754,544272.2632461946
641.3000000000773,-12904.729565294538,44350.83549395761,-92.93412900590408,-1542.4907279670078,542841.3425464273
641.4000000000773,-12913.964672112688,44197.42722143984,-92.35106818150808,-1534.0827251777055,541425.3603726327
641.5000000000773,-12923.14211919776,44044.85244644084,-91.77447085071702,-1525.747749989974,540024.0990708339
641.6000000000773,-12932.262544263747,43893.10394472111,-91.20425065986434,-1517.485017197331,538637.3448613072
641.7000000000774,-12941.326576199384,43742.174569586816,-90.64031935636524,-1509.2937513428953,537264.8877581523
641.8000000000774,-12950.334834900157,43592.057250928556,-90.08258700773547,-1501.1731865825777,535906.521490753
641.9000000000774,-12959.28793112157,43442.74499427353,-89.53096221411893,-1493.1225665502634,534562.0434270801
642.0000000000774,-12968.186466352976,43294.230879851035,-88.98535231407313,-1485.1411442249912,533231.2544987887
642.1000000000774,-12977.031032711317,43146.50806167102,-88.44566358340259,-1477.2281818001293,531913.9591280632
642.2000000000775,-12985.822212854004,42999.56976661556,-87.91180142686845,-1469.382950554543,530609.9651561639
642.3000000000775,-12994.560579910267,42853.40929354299,-87.38367056263829,-1461.604730725748,529319.0837736323
642.4000000000775,-13003.246697430204,42708.020012404486,-86.86117519937387,-1453.892811385036,528041.1294521113
642.5000000000775,-13011.881119350794,42563.39536337303,-86.34421920588564,-1446.2464903145587,526775.91987774
642.6000000000776,-13020.464389978124,42419.52885598439,-85.83270627331187,-1438.665073886349,525523.2758860808
642.7000000000776,-13028.997043985104,42276.41406829006,-85.32654006980768,-1431.1478769432656,524283.0213985421
642.8000000000776,-13037.47960642388,42134.04464602188,-84.82562438775345,-1423.69422268183,523054.9833602557
642.9000000000776,-13045.912592752231,41992.414301768185,-84.32986328351595,-1416.3034425369378,521838.99167937424
643.0000000000776,-13054.296508873213,41851.51681416135,-83.83916120981586,-1408.974876068415,520634.87916775106
643.1000000000777,-13062.63185118729,41711.346027076404,-83.3534231407753,-1401.7078708493912,519442.481482968
643.2000000000777,-13070.919106656263,41571.89584884076,-82.87255468973635,-1394.501782356463,518261.6370716775
643.3000000000777,-13079.158752878258,41433.160251454596,-82.3964622199573,-1387.3559738616166,517092.18711422454
643.4000000000777,-13087.351258173088,41295.13326982201,-81.92505294830843,-1380.2698163258785,515933.97547051817
643.5000000000778,-13095.497081677298,41157.80900099254,-81.4582350421012,-1373.2426882946656,514786.8486271195
643.6000000000778,-13103.596673448219,41021.18160341306,-80.99591770919703,-1366.2739757948016,513650.6556455167
643.7000000000778,-13111.650474576374,40885.24529618974,-80.53801128155163,-1359.3630722331695,512525.24811155716
643.8000000000778,-13119.65891730561,40749.99435836005,-80.08442729235966,-1352.5093782969689,511410.48008600797
643.9000000000779,-13127.622425160309,40615.423128174494,-79.63507854697262,-1345.7123018555453,510306.2080562167
644.0000000000779,-13135.541413079085,40481.52600238812,-79.18987918776914,-1338.971257863764,509212.29088884516
644.1000000000779,-13143.4162875544,40348.29743556143,-78.74874475316254,-1332.285668266894,508128.58978364983
644.2000000000779,-13151.247446777494,40215.73193937073,-78.311592230935,-1325.6549619069733,507054.9682282828
644.300000000078,-13159.035280788103,40083.82408192767,-77.87834010609136,-1319.0785744306277,505991.29195408867
644.400000000078,-13166.780171628445,39952.56848710784,-77.44890840342825,-1312.55594819831,504937.4288928722
644.500000000078,-13174.482493500946,39821.959833888344,-77.02321872501642,-1306.086532194935,503893.2491346136
644.600000000078,-13182.142612929225,39691.99285569416,-76.60119428279498,-1299.669781941879,502858.62488610845
644.700000000078,-13189.760888921872,39562.66233975313,-76.18275992647705,-1293.3051594103185,501833.43043050857
644.8000000000781,-13197.337673138569,39433.963126459545,-75.76784216696606,-1286.9921329358813,500817.5420877436
644.9000000000781,-13204.873310058118,39305.89010874608,-75.35636919548132,-1280.7301771345817,499810.8381758003
645.0000000000781,-13212.368137147976,39178.43823146408,-74.94827089858994,-1274.5187728200183,498813.1989728404
645.1000000000781,-13219.82248503491,39051.602490771904,-74.54347886934076,-1268.3574069218064,497824.50668013544
645.2000000000781,-13227.23667767638,38925.37793353138,-74.14192641469351,-1262.2455724052231,496844.6453857996
645.3000000000782,-13234.611032532322,38799.75965671218,-73.74354855943379,-1256.182768192041,495873.50102930126
645.4000000000782,-13241.945860736998,38674.74280680393,-73.34828204676155,-1250.1684990825283,494910.96136673464
645.5000000000782,-13249.24146727057,38550.32257923607,-72.95606533573746,-1244.2022756785932,493956.9159368333
645.6000000000782,-13256.498151130148,38426.494217805266,-72.5668385957676,-1238.2836143080515,493011.25602770783
645.7000000000783,-13263.716205499979,38303.25301411027,-72.18054369830364,-1232.4120369499976,492073.8746442904
645.8000000000783,-13270.895917920572,38180.59430699414,-71.79712420593079,-1226.5870711612574,491144.6664764698
645.9000000000783,-13278.037570456474,38058.51348199375,-71.41652535901225,-1220.8082500039045,490223.5278678998
646.0000000000783,-13285.14143986248,37937.00597079637,-71.03869406005386,-1215.0751119738215,489310.3567854661
646.1000000000784,-13292.207797748075,37816.06725070334,-70.66357885594812,-1209.3872009302877,488405.05278939515
646.2000000000784,-13299.2369107399,37695.69284410068,-70.2911299182524,-1203.7440660265743,487507.5170039907
646.3000000000784,-13306.229040642065,37575.87831793653,-69.92129902165073,-1198.145261641532,486617.6520889827
646.4000000000784,-13313.184444594139,37456.61928320531,-69.55403952074417,-1192.590347312153,485735.3622114747
646.5000000000784,-13320.10337522667,37337.911394438604,-69.18930632530942,-1187.0788876670913,484860.55301847536
646.6000000000785,-13326.986080814086,37219.75034920249,-68.82705587416054,-1181.6104523611245,483993.13161000103
646.7000000000785,-13333.83280542486,37102.131887601434,-68.4672461077437,-1176.1846160105442,483133.00651273533
646.8000000000785,-13340.64378906882,36985.051791788486,-68.10983643958961,-1170.800958129457,482280.0876542337
646.9000000000785,-13347.419267841493,36868.50588548179,-67.75478772674352,-1165.4590630669832,481434.2863376597
647.0000000000786,-13354.159474065422,36752.49003348726,-67.4020622392876,-1160.1585199453382,480595.5152170412
647.1000000000786,-13360.864636428329,36637.00014122738,-67.05162362906574,-1154.8989225987827,479763.68827303394
647.2000000000786,-13367.5349801181,36522.032154276036,-66.70343689771556,-1149.679869513429,478938.72078918165
647.3000000000786,-13374.170726954511,36407.58205789925,-66.3574683641081,-1144.5009637678866,478120.5293286605
647.4000000000786,-13380.772095517641,36293.645876601775,-66.01368563129057,-1139.3618129747388,477309.0317114976
647.5000000000787,-13387.339301272943,36180.219673679494,-65.672057553023,-1134.262029222834,476504.14699225186
647.6000000000787,-13393.872556692942,36067.299550777454,-65.33255419999493,-1129.2012290203793,475705.79543814785
647.7000000000787,-13400.372071375523,35954.88164745357,-64.99514682580417,-1124.1790332388264,474913.89850765123
647.8000000000787,-13406.8380521588,35842.96214074782,-64.65980783277462,-1119.195067057534,474128.37882947637
647.9000000000788,-13413.270703232569,35731.5372447569,-64.32651073768659,-1114.2489599091987,473349.1601820165
648.0000000000788,-13419.670226246317,35620.6032102143,-63.99523013748829,-1109.340345426039,472576.1674731866
648.1000000000788,-13426.036820413821,35510.15632407563,-63.66594167505344,-1104.4688613867243,471809.32672066975
648.2000000000788,-13432.370682614326,35400.192909109224,-63.338622005045835,-1099.634149664034,471048.565032558
648.3000000000789,-13438.67200749032,35290.7093234919,-63.01324875994797,-1094.8358561732389,470293.8105883791
648.4000000000789,-13444.940987541951,35181.70196040978,-62.68980051630698,-1090.073630821191,469544.9926205003
648.5000000000789,-13451.177813218077,35073.16724766417,-62.368256761247665,-1085.3471274561139,468802.04139590065
648.6000000000789,-13457.382673004007,34965.10164728236,-62.04859785929884,-1080.6560038180799,468064.88819830393
648.700000000079,-13463.555753505965,34857.50165513335,-61.73080501957587,-1075.9999214901657,467333.46531066427
648.800000000079,-13469.697239532301,34750.363800548315,-61.41486026335904,-1071.3785458502762,466607.7059979962
648.900000000079,-13475.807314171512,34643.684645945956,-61.10074639210426,-1066.7915460236238,465887.54449054226
649.000000000079,-13481.886158867104,34537.46078646237,-60.78844695591966,-1062.2385948358576,465172.91596727003
649.100000000079,-13487.933953489359,34431.688849585684,-60.47794622253861,-1057.7193687668275,464463.7565396917
649.2000000000791,-13493.95087640404,34326.36549479519,-60.169229146817145,-1053.2335479049775,463760.00323599926
649.3000000000791,-13499.937104538118,34221.48741320495,-59.86228134078087,-1048.7808159023568,463061.5939855081
649.4000000000791,-13505.892813442542,34117.05132721193,-59.55708904424412,-1044.3608599302397,462368.46760340245
649.5000000000791,-13511.818177352145,34013.05399014839,-59.2536390960216,-1039.9733706353447,461680.56377577625
649.6000000000791,-13517.71336924272,33909.49218593873,-58.951918905750304,-1035.6180420966436,460997.8230449628
649.7000000000792,-13523.578560885353,33806.362728760454,-58.65191642633765,-1031.294571782753,460320.1867951468
649.8000000000792,-13529.413922898058,33703.662462709464,-58.35362012704925,-1027.0026605098972,459647.5972382535
649.9000000000792,-13535.219624794783,33601.38826146942,-58.05701896724805,-1022.7420124004337,458979.9974001079
650.0000000000792,-13540.995835031863,33499.53702798523,-57.76210237079456,-1018.5123348419371,458317.3311068589
650.1000000000793,-13546.742721051975,33398.10569414055,-57.468860201116016,-1014.3133384468257,457659.5429716626
650.2000000000793,-13552.46044932567,33297.091220439295,-57.177282736950794,-1010.1447370125292,457006.578381619
650.3000000000793,-13558.149185390548,33196.49059569107,-56.88736064877265,-1006.006247482185,456358.3834849571
650.4000000000793,-13563.809093888138,33096.30083670049,-56.599084975897895,-1001.8975899058572,455714.9051784624
650.5000000000794,-13569.440338598566,32996.51898796026,-56.312447104277176,-997.8184874022693,455076.0910951427
650.6000000000794,-13575.043082473063,32897.14212134816,-56.027438744972166,-993.7686661210433,454441.8895921261
650.7000000000794,-13580.617487664395,32798.16733582762,-55.74405191331628,-989.7478552054382,453812.2497387869
650.8000000000794,-13586.16371555527,32699.59175715206,-55.46227890875726,-985.7557867555782,453187.1213050944
650.9000000000794,-13591.681926784808,32601.412537572844,-55.18211229537844,-981.7921957921661,452566.4547501801
651.0000000000795,-13597.172281273117,32503.626855550778,-54.90354488309435,-977.8568202206721,451950.2012111185
651.1000000000795,-13602.634938244068,32406.231915471177,-54.62656970951563,-973.9494007959928,451338.3124919166
651.2000000000795,-13608.070056246315,32309.224947362418,-54.35118002247693,-970.069681087572,450730.7410527092
651.3000000000795,-13613.477793172637,32212.60320661792,-54.07736926322108,-966.2174074449771,450127.439999154
651.4000000000796,-13618.85830627766,32116.363973721527,-53.80513105023166,-962.3923289639243,449528.3630720231
