time[s],x[m],y[m],vx[m/s],vy[m/s],theta[rad],theta_dot[rad/s],alpha[rad],gamma[rad],mass[kg],non_nominal_throttle,gimbalanglecommand[deg],gimbalangle[deg],u0,u1
356.2000000000125,11488.732925198681,47510.86108149467,-149.54181968067746,-1193.1167077717323,1.396061825084918,-0.0018151859571963345,-3.191640234640913,4.587702059725832,1559904.7436396193,1.0,-2.0,-0.2,-1.0,1.0
356.3000000000125,11473.869554138984,47391.96126892449,-148.63371059697755,-1188.9981257018383,1.3958857675401586,-0.0017605754475940535,-3.1921408110005682,4.588026578540727,1557666.2159970575,1.0,-0.48938995558579085,-0.22893899555857913,-0.24469497779289542,1.0
356.40000000001254,11459.098000494789,47273.4738818091,-147.715536441959,-1184.873871153899,1.395719391675939,-0.0016637586421966429,-3.192641765194366,4.588361156870305,1555427.697940196,1.0,-2.0,-0.4060450960027212,-1.0,1.0
356.50000000001256,11444.419189545135,47155.399501966596,-146.78810949653345,-1180.7437984250641,1.3955664951279951,-0.001528965479437117,-3.193138719419844,4.588705214547839,1553189.1930822781,1.0,-2.0,-0.5654405864024491,-1.0,1.0
356.6000000000126,11429.833971054582,47037.73872542144,-145.85218490551634,-1176.6077654515175,1.3954304948642553,-0.0013600026373961614,-3.193627716875602,4.589058211739857,1550950.703806557,1.0,-2.0,-0.7088965277622042,-1.0,1.0
356.7000000000126,11415.343124402565,46920.49216200949,-144.9084665201721,-1172.465634119517,1.395314465282598,-0.0011602958165734855,-3.194105179484522,4.58941964476712,1548712.2315543415,1.0,-2.0,-0.8380068749859838,-1.0,1.0
356.80000000001263,11400.947363189201,46803.6604349798,-143.95761213363937,-1168.3172702969327,1.3952211725021615,-0.0009329278043673896,-3.1945678698177224,4.589789042319884,1546473.777052881,1.0,-2.0,-0.9542061874873854,-1.0,1.0
356.90000000001265,11386.647339368974,46687.24418059302,-143.0002382022668,-1164.1625438678166,1.3951531052253299,-0.0006806727683164915,-3.1950128568028737,4.590165962028204,1544235.3404950602,1.0,-2.0,-1.058785568738647,-1.0,1.0
357.0000000000127,11372.443646959839,46571.24404772445,-142.03692409135817,-1160.001328685653,1.3951125025120974,-0.00040602713232572015,-3.1954374848423117,4.590549987354409,1541996.9216805503,1.0,-2.0,-1.1529070118647822,-1.0,1.0
357.1000000000127,11358.336825370461,46455.660697477644,-141.06821589377174,-1155.833502468107,1.3951013787748687,-0.00011123737228618097,-3.195839346002063,4.590940724776931,1539758.5201261784,1.0,-2.0,-1.237616310678304,-1.0,1.0
357.2000000000127,11344.327362383974,46340.49480281253,-140.09462986487873,-1151.658946651115,1.3951215462713071,0.00020167496438304054,-3.196216254966085,4.591337801237392,1537520.135151761,1.0,-2.0,-1.3138546796104735,-1.0,1.0
357.30000000001274,11330.41569683268,46225.74704819091,-139.11665551293316,-1147.477546216181,1.395174635345304,0.0005308907399702058,-3.196566226480238,4.591740861825542,1535281.7659464183,1.0,-2.0,-1.3824692116494262,-1.0,1.0
357.40000000001277,11316.602220994691,46111.41812924075,-138.1347583798996,-1143.289189501573,1.3952621126412905,0.0008747729598656752,-3.1968874550376554,4.592149567678946,1533043.4116194022,1.0,-2.0,-1.4442222904844835,-1.0,1.0
357.5000000000128,11302.887282740272,45997.5087524402,-137.14938254418684,-1139.0937680055847,1.3953852974946686,0.0012318485337809958,-3.197178296581825,4.592563594076493,1530805.0712386654,1.0,-2.0,-1.4998000614360352,-1.0,1.0
357.6000000000128,11289.271187452921,45884.019634821394,-136.16095287350558,-1134.8911761880331,1.3955453766809185,0.0016007918624999012,-3.197437252025904,4.592982628706823,1528566.743859763,1.0,-2.0,-1.5498200552924317,-1.0,1.0
357.70000000001284,11275.754199747604,45770.951503693934,-135.16987705317186,-1130.681311274572,1.3957434176877024,0.0019804100678388874,-3.197662952406789,4.593406370094492,1526328.4285471581,1.0,-2.0,-1.5948380497631884,-1.0,1.0
357.80000000001286,11262.336545006347,45658.305096387216,-134.17654741257962,-1126.464073067162,1.3959803806578581,0.0023696297015595243,-3.1978541455105547,4.593834526168413,1524090.1243895828,1.0,-2.0,-1.6353542447868696,-1.0,1.0
357.9000000000129,11249.018410749322,45546.08116001091,-133.18134257023831,-1122.2393637630548,1.3962571291363879,0.0027674847852956594,-3.198009683822121,4.59426681295851,1521851.830510776,1.0,-2.0,-1.6718188203081827,-1.0,1.0
358.0000000000129,11235.799947857753,45434.28045123252,-132.18462891568464,-1118.0070877838912,1.396574439741217,0.00317310604829037,-3.1981285136667,4.594702953407916,1519613.546076646,1.0,-2.0,-1.7046369382773645,-1.0,1.0
358.1000000000129,11222.681271663283,45322.903736070926,-131.1867619447067,-1113.7671516159194,1.3969330108655194,0.0035857112430248035,-3.198209665423739,4.595142676289258,1517375.2702996903,1.0,-2.0,-1.734173244449628,-1.0,1.0
358.20000000001295,11209.662462917018,45211.95178970473,-130.18808746264273,-1109.5194636618942,1.3973334705085991,0.004004596430798489,-3.198252244706018,4.595585715214617,1515137.002441333,1.0,-2.0,-1.7607559200046652,-1.0,1.0
358.300000000013,11196.743568650118,45101.425396294246,-129.18894266901341,-1105.2639341048643,1.3977763833226104,0.00442912814011254,-3.1982554244072143,4.596031807729824,1512898.741812698,1.0,-2.0,-1.7846803280041987,-1.0,1.0
358.400000000013,11183.924602936579,44991.325348815866,-128.18965713539865,-1101.000474783807,1.3982622569536531,0.004858736310427251,-3.1982184375309215,4.596480694484574,1510660.4877742305,1.0,-2.0,-1.806212295203779,-1.0,1.0
358.500000000013,11171.205547567852,44881.65244890778,-127.19055368726114,-1096.7289990808754,1.3987915477479151,0.005292907942618032,-3.198140570722785,4.596932118470701,1508422.2397344809,1.0,-2.0,-1.8255910656834011,-1.0,1.0
358.60000000001304,11158.586352647919,44772.40750672579,-126.19194919933481,-1092.449421819889,1.3993646658864483,0.00573118138533297,-3.198021158435199,4.597385824321647,1506183.997148307,1.0,-2.0,-1.8430319591150612,-1.0,1.0
358.70000000001306,11146.066937116597,44663.59134080823,-125.19415531322244,-1088.161659175605,1.399981980005803,0.0061731411935476805,-3.197859577661075,4.597841557666879,1503945.759514682,1.0,-2.0,-1.858728763203555,-1.0,1.0
358.8000000000131,11133.647189208099,44555.2047779489,-124.19747908497399,-1083.8656285932468,1.4006438213560026,0.00661841350199617,-3.197655243179499,4.598299064535501,1501707.5263742588,1.0,-2.0,-1.8728558868831997,-1.0,1.0
358.9000000000131,11121.326966851137,44447.24865307713,-123.2022235696329,-1079.5612487177293,1.4013504875421927,0.007066661861900665,-3.1974076032617815,4.598758090803974,1499469.2973068026,1.0,-2.0,-1.8855702981948796,-1.0,1.0
359.00000000001313,11109.106098016233,44339.72380914393,-122.20868834903325,-1075.2484393320046,1.4021022458916517,0.007517583494592495,-3.1971161357915765,4.599218381683229,1497231.0719285759,1.0,-2.0,-1.897013268375392,-1.0,1.0
359.10000000001315,11096.984381015383,44232.63109701353,-121.21717000849833,-1070.9271213039492,1.4028993364836786,0.007970905920267262,-3.1967803447572716,4.599679681240951,1494992.8498897383,1.0,-2.0,-1.907311941537853,-1.0,1.0
359.2000000000132,11084.961584758632,44125.97137535941,-120.22796256752324,-1066.5972165412213,1.4037419748761089,0.008426383924302632,-3.1963997570791074,4.600141731955216,1492754.6308718082,1.0,-2.0,-1.9165807473840675,-1.0,1.0
359.3000000000132,11073.037442698213,44019.74551183994,-119.2414206041888,-1062.2586351947614,1.4046303222758514,0.008883473997425841,-3.195973892365261,4.600604214641112,1490516.414139358,1.0,-1.9864075470948082,-1.9235634273551416,-0.9932037735474041,1.0
359.4000000000132,11061.211603095882,43913.95439309061,-118.25839602329879,-1057.9111874933135,1.4055642314280412,0.009339091521901457,-3.19550209876707,4.601066330195112,1488278.1954411466,1.0,-1.863520084377725,-1.9175590930574,-0.9317600421888625,1.0
359.50000000001324,11049.483632885867,43808.59892370205,-117.27970210014607,-1053.5546938856187,1.4065432683273271,0.009790368992857982,-3.1949840352748353,4.601527303602163,1486039.9708605544,1.0,-1.7367506410229587,-1.899478247853956,-0.8683753205114794,1.0
359.60000000001327,11037.853021612902,43703.68002514754,-116.30611272965581,-1049.1889855450347,1.407566733430834,0.010234651035068359,-3.1944196516976886,4.601986385128523,1483801.7368763243,1.0,-1.6068057917153649,-1.8702110022400968,-0.8034028958576824,1.0
359.7000000000133,11026.319185417451,43599.19863467645,-115.33836195450458,-1044.8139047109141,1.408633682274861,0.010669488440272075,-3.1938091689896035,4.602442851264465,1481563.490404643,1.0,-1.474329670145376,-1.8306228690306245,-0.737164835072688,1.0
359.8000000000133,11014.881471057288,43495.15570418549,-114.3771436016385,-1040.4293049096066,1.4097429454851007,0.01109263210239732,-3.1931530600916203,4.602896005576721,1479325.2288257985,1.0,-1.339936742629178,-1.7815542563904798,-0.669968371314589,1.0
359.90000000001334,11003.539159954895,43391.55219907909,-113.42311102393697,-1036.035051064025,1.410893148171645,0.011502026865441217,-3.1924520313010096,4.6033451794726545,1477086.9499973597,1.0,-1.2042119863417216,-1.723820029385604,-0.6021059931708608,1.0
360.00000000001336,10992.291395454311,43288.38865874321,-112.47764500584107,-1031.6354033587227,1.412082698640219,0.011895504685739949,-3.191706756339471,4.60378945497969,1474850.4788376945,0.9991074480029585,-1.0685832265910344,-1.658296349106147,-0.5342916132955172,0.998214896005917
360.1000000000134,10981.136701241116,43185.66238144967,-111.5469421319545,-1027.2627729354465,1.413309625384443,0.012269267442244896,-3.1909165727599826,4.604226198144426,1472629.3314410555,0.9916097866148015,-0.9375704677905812,-1.5862237609745904,-0.4687852338952906,0.983219573229603
360.2000000000134,10970.073566096078,43083.370698812614,-110.63135145036844,-1022.9168263705616,1.4145718318938856,0.012622065094424177,-3.1900830708578667,4.6046549027517525,1470423.3312669392,0.9841981465077922,-0.8006715457515947,-1.5076685394522908,-0.40033577287579736,0.9683962930155845
360.3000000000134,10959.100447586154,42981.51097020888,-109.73118509924655,-1018.5972860373126,1.4158671129623004,0.012952810684148896,-3.189207984358241,4.605075097320542,1468232.3218090034,0.9768629375696258,-0.6632714481935188,-1.4232288303264136,-0.3316357240967594,0.9537258751392517
360.40000000001345,10948.215776334791,42880.08058149022,-108.84671251362872,-1014.3038871866471,1.4171931701802032,0.013260572179027747,-3.188293176835486,4.605486347015689,1466056.1488799795,0.9696032102577631,-0.525670077620409,-1.333472955055813,-0.2628350388102045,0.9392064205155262
360.5000000000135,10937.41796019289,42779.076943742264,-107.97816141900947,-1010.0363774795586,1.4185476266935937,0.01354456513390582,-3.1873406268071274,4.605888253500721,1463894.660575332,0.9624180173313027,-0.3882936660143668,-1.2389550261516684,-0.1941468330071834,0.9248360346626054
360.6000000000135,10926.70538830487,42678.49749209959,-107.12571888018942,-1005.7945164267417,1.4199280412439108,0.013804145503171604,-3.1863524134632994,4.6062804547072105,1461747.7072120795,0.9553064247152403,-0.2515512003651045,-1.140214643573012,-0.1257756001825522,0.9106128494304806
360.7000000000135,10916.076435063951,42578.33968461978,-106.28953240919638,-1001.5780747980621,1.4213319215041027,0.014038802601918891,-3.1853307030179154,4.606662624522018,1459615.141266403,0.9482675112141176,-0.11583439763585802,-1.0377766189792967,-0.05791719881792901,0.8965350224282351
360.80000000001354,10905.52946395122,42478.60100121889,-105.46971112732088,-997.3868340088833,1.4227567367255656,0.014248152214631755,-3.184277735670504,4.6070344723960694,1457496.81731068,0.9413003682621641,0.01848243365084818,-0.9321507137162821,0.00924121682542409,0.8826007365243282
360.90000000001356,10895.062831253577,42379.278942669895,-104.6663269764239,-993.2205854899734,1.4241999297106067,0.014431929850408823,-3.1831958131677833,4.60739574287839,1455392.5919505532,0.9344040996936951,0.15104250704138364,-0.8238313916405156,0.07552125352069182,0.8688081993873902
361.0000000000136,10884.6748896561,42280.37102966516,-103.87941597476501,-989.0791300473035,1.4256589281250127,0.01458998414406105,-3.1820872869540944,4.607746215079108,1453302.3237625689,0.9275778215320901,0.281506646999129,-0.7132975877765511,0.1407533234995645,0.8551556430641802
361.1000000000136,10874.363991704831,42181.8748019434,-103.10897951268238,-984.9622772176208,1.4271311551652828,0.01472227040270116,-3.1809545468998515,4.608085702065134,1451225.8732328515,0.9208206617956021,0.40955335294300355,-0.6010124937045955,0.20477667647150177,0.8416413235912041
361.20000000001363,10864.128493136477,42083.78781748087,-102.35498568353543,-980.8698446252339,1.4286140395950522,0.014828844297694644,-3.1798000105972077,4.60841405019226,1449163.1026972316,0.9141317603183381,0.5348788383576896,-0.48742336049836704,0.26743941917884473,0.8282635206366762
361.30000000001365,10853.966756071937,41986.10765174637,-101.61737064539719,-976.8016573449979,1.4301050251652583,0.014909855702062054,-3.1786261132121245,4.608731138377383,1447113.8762831725,0.9075102685847368,0.6571970448402082,-0.3729613199645095,0.32859852242010407,0.8150205371694736
361.4000000000137,10843.87715207103,41888.83189701877,-100.896040009061,-972.7575472760266,1.4316015794326193,0.014965542673610326,-3.177435297882018,4.609036877314637,1445078.0598537964,0.9009553495759638,0.7762396309798326,-0.25804122487007525,0.3881198154899163,0.8019106991519276
361.5000000000137,10833.85806504623,41791.958161765746,-100.19087024800557,-968.7373525302011,1.433101201991042,0.014996225584227115,-3.1762300066481215,4.609331208639164,1443055.5209542527,0.894466177626678,0.8917559359781946,-0.14306150878524826,0.4458779679890973,0.788932355253356
361.6000000000137,10823.907894033626,41695.48407008184,-99.50171012604577,-964.7409168390867,1.434601432130632,0.015002301395898194,-3.1750126719116545,4.609614104042286,1441046.1287606284,0.8880419382906997,1.003512917936336,-0.028404066113089824,0.501756458968168,0.7760838765813993
361.70000000001374,10814.025055819777,41599.407261183595,-98.82838213848552,-960.768088982417,1.436099855939042,0.014984238084104498,-3.173785708402828,4.60988556434187,1439049.7540315483,0.8816818282141969,1.111295066742392,0.08556584717245835,0.555647533371196,0.7633636564283939
361.80000000001377,10804.207987423508,41503.72538895951,-98.17068396268444,-956.8187222408613,1.4375941128599745,0.014942569209323311,-3.172551505651642,4.610145618511617,1437066.2690625796,0.87538505501508,1.2149042915726918,0.1984996916124817,0.6074521457863459,0.75077011003016
361.9000000000138,10794.455148432102,41408.43612157197,-97.5283899140523,-952.8926738753615,1.4390819017237144,0.01487788863739935,-3.1713124209493264,4.61039432267304,1435095.5476435078,0.8691508371673647,1.314159783009037,0.31006570075213724,0.6570798915045185,0.7383016743347295
362.0000000000138,10784.765023191741,41313.53714110848,-96.90125240359603,-948.9898046349034,1.440560986264671,0.014790845409565405,-3.170070772789221,4.610631759053892,1433137.4650185225,0.8629784038894,1.4088978499336822,0.41994891567029174,0.7044489249668411,0.7259568077787999
362.10000000001384,10775.136122852415,41219.02614327906,-96.28900339326208,-945.109978294191,1.4420292001409596,0.014682138762884128,-3.168828834775736,4.610858034916696,1431191.8978493141,0.8568669950349131,1.4989717312535795,0.5278511972286205,0.7494858656267898,0.7137339900698263
362.20000000001386,10765.56698726787,41124.90083715683,-95.69135584544397,-941.2530612223063,1.4434844514711442,0.01455251330184824,-3.167588829989974,4.611073281461119,1429258.7241810567,0.8508158609859252,1.584251382816928,0.6334912157874513,0.792125691408464,0.7016317219718504
362.3000000000139,10756.056186751553,41031.15894495852,-95.10800516315923,-937.418921983078,1.4449247269033267,0.014402754321824317,-3.1663529258004544,4.611277652703781,1427337.8234112212,0.8448242625466987,1.6646232396760146,0.7366044181763076,0.8323116198380073,0.6896485250933975
362.4000000000139,10746.6023236898,40937.79820186177,-94.53863061754221,-933.6074309675421,1.446348095231822,0.014233683284950817,-3.1651232291072806,4.611471324339103,1425429.076261146,0.8388914708379838,1.7399899541959578,0.8369429717782726,0.8699949770979789,0.6777829416759675
362.5000000000139,10737.204034013856,40844.81635585591,-93.98289675944886,-929.8184600585608,1.447752710576723,0.014046153449009696,-3.1639017820079594,4.611654492584682,1423532.364750265,0.8330167671908875,1.810270110411078,0.9342756856415533,0.905135055205539,0.6660335343817749
362.60000000001395,10727.859988532644,40752.21116762317,-93.44045481212551,-926.0518823273761,1.449136815141691,0.013841045649683074,-3.1626905578729967,4.611827373014688,1421647.5721728778,0.8271994430398184,1.875397915213032,1.028387908598701,0.937698957606516,0.6543988860796368
362.700000000014,10718.568894128439,40659.98041044701,-92.91094404205523,-922.3075717616053,1.4504987415653396,0.013619264236484449,-3.16149145781928,4.6119901993846195,1419774.583077333,0.8214387998140421,1.935322866961458,1.1190814044349768,0.967661433480729,0.6428775996280842
362.800000000014,10709.329494817912,40568.12187014461,-92.39399310526255,-918.5854030239482,1.4518369148815913,0.013381733162518717,-3.1603063075691025,4.612143222450694,1417913.2832474776,0.8157341488274731,1.9900094022792325,1.2061742042194024,0.9950047011396163,0.6314682976549462
362.900000000014,10700.140588764654,40476.63334346386,-91.88906053256859,-914.8852668075103,1.4531499312664475,0.013130163848557457,-3.1591369532537037,4.6122868845201515,1416063.5589709438,0.8100848111663745,2.0,1.2855567837974622,1.0,0.6201696223327491
363.00000000001404,10691.001029136345,40385.512638178494,-91.39559628308449,-911.2070528536674,1.4544365593210467,0.01286628054599421,-3.1579850865478876,4.612421645868935,1414225.297613405,0.8044901175747932,2.0,1.357001105417716,1.0,0.6089802351495863
363.10000000001406,10681.909720731539,40294.757573563875,-90.91308404806806,-907.5506461461828,1.455695721560558,0.012591622395115512,-3.156852216850795,4.612547938411353,1412398.387824956,0.7989494083810486,2.0,1.4213009948759443,1.0,0.5978988167620971
363.2000000000141,10672.86561691188,40204.36598079771,-90.44103819658184,-903.9159276616831,1.4569264778721243,0.012307563115659023,-3.155739690552577,4.6126661684247,1410582.719556912,0.7934620335518906,2.0,1.4791708953883498,1.0,0.5869240671037812
363.3000000000141,10663.867716809445,40114.33570329633,-89.97900102434302,-900.3027750137423,1.4581280107323604,0.012015328602363522,-3.1546487082740087,4.612776719006368,1408778.1840693695,0.7880273524904067,2.0,1.5312538058495149,1.0,0.5760547049808133
363.40000000001413,10654.915062781884,40024.664596995644,-89.52654027562397,-896.7110630069114,1.4592996119971995,0.011716012648392745,-3.153580340292359,4.612879952289559,1406984.673931689,0.7826447338324279,2.0,1.5781284252645633,1.0,0.5652894676648559
363.50000000001415,10646.00673809079,39935.35053058421,-89.08324691094673,-893.1406641142937,1.4604406710967894,0.011410590995898202,-3.152535540344427,4.612976211441217,1405202.0830175718,0.7773135552573088,2.0,1.6203155827381073,1.0,0.5546271105146177
363.6000000000142,10637.141864781193,39846.391385695206,-88.64873309595774,-889.5914488900837,1.4615506644859728,0.011099933891834692,-3.151515157977552,4.613065822463524,1403430.306496051,0.7720332033106969,2.0,1.6582840244642965,1.0,0.5440664066213938
363.7000000000142,10628.319601742265,39757.78505706254,-88.22263038927558,-886.0632863266661,1.4626291462167937,0.010784817308208138,-3.15051994960147,4.613149095818263,1401669.2408194349,0.7668030732373722,2.0,1.6924556220178668,1.0,0.5336061464747444
363.8000000000142,10619.539142931337,39669.5294526461,-87.80458810929065,-882.556044164362,1.4636757395136932,0.010465932968995919,-3.1495505883777564,4.61322632789145,1399918.7837090208,0.761622568822612,2.0,1.7232100598160804,1.0,0.5232451376452241
