time[s],x[m],y[m],vx[m/s],vy[m/s],theta[rad],theta_dot[rad/s],alpha[rad],gamma[rad],mass[kg],non_nominal_throttle,gimbalanglecommand[deg],gimbalangle[deg],u0,u1
356.2000000000125,11488.733810856738,47510.860920524974,-149.53296310010566,-1193.1183174687176,1.396066592784773,-0.001767508958643601,-3.191642941676385,4.587709534461159,1559904.7538680444,1.0,-4.0,-0.4,-1.0,1.0
356.3000000000125,11473.872388154783,47391.96075268867,-148.61422701954757,-1189.0016783630833,1.3959010290092912,-0.0016556377548198396,-3.1921420517042343,4.588043080713525,1557666.240520101,1.0,-1.0916709812830778,-0.46916709812830776,-0.27291774532076946,1.0
356.40000000001254,11459.104621478984,47273.47266499443,-147.677666757989,-1184.8808769423736,1.395755066166003,-0.0014596284328818219,-3.1926382882883244,4.588393354454328,1555427.7660381207,1.0,-4.0,-0.822250388315477,-1.0,1.0
356.50000000001256,11444.432129872961,47155.397097537796,-146.72491606022598,-1180.7556745663205,1.3956362743408384,-0.0011879182516469336,-3.1931228768704347,4.588759151211273,1553189.3447060268,1.0,-4.0,-1.1400253494839294,-1.0,1.0
356.6000000000126,11429.85638059518,47037.73451470391,-145.75749277780577,-1176.6258283388893,1.3955514642605464,-0.0008481008029189738,-3.1935878822371024,4.589139346497648,1550950.9859266065,1.0,-4.0,-1.4260228145355365,-1.0,1.0
356.7000000000126,11415.378699511832,46920.485405284155,-144.77681083347733,-1172.491094197512,1.3955067632839537,-0.0004470097659262653,-3.1940261241988988,4.589532887482852,1548712.6953656606,1.0,-4.0,-1.683420533081983,-1.0,1.0
356.80000000001263,11401.00028041567,46803.65028237471,-143.78419096162156,-1168.3512290945037,1.3955076838303002,9.205463464621855e-06,-3.1944311015905424,4.589938785420843,1546474.4758571142,1.0,-4.0,-1.9150784797737845,-1.0,1.0
356.90000000001265,11386.722193378098,46687.22968310647,-142.7808703757117,-1164.2059926824074,1.3955591849814954,0.000515011511952553,-3.194796923789316,4.590356108770811,1544236.3281166553,1.0,-4.0,-2.1235706317964063,-1.0,1.0
357.0000000000127,11372.54539223254,46571.22416825418,-141.76801145558062,-1160.0551485228846,1.3956657279293407,0.0010654294784523193,-3.1951182490213044,4.590783976950646,1541998.2513022244,1.0,-4.0,-2.3112135686167656,-1.0,1.0
357.1000000000127,11358.470721277232,46455.63432176163,-140.74670955308002,-1155.8984649255133,1.3958313258760269,0.0016559794668624536,-3.1953902287903846,4.591221554666411,1539760.2434522025,1.0,-4.0,-2.480092211755089,-1.0,1.0
357.2000000000127,11344.498921276678,46340.46075021149,-139.7180000055501,-1151.7357155013879,1.396059588938351,0.002282630623241476,-3.195608457826654,4.591668046765005,1537522.3018261183,1.0,-4.0,-2.63208299057958,-1.0,1.0
357.30000000001274,11330.630634832885,46225.70408226158,-138.6828644379234,-1147.5666794990987,1.3963537645530197,0.002941756146687819,-3.195768929008121,4.592122693561141,1535284.423167813,1.0,-4.0,-2.768874691521622,-1.0,1.0
357.40000000001277,11316.866411190253,46111.36496806391,-137.6422364263243,-1143.391141976753,1.3967167738319637,0.0036300927894389132,-3.1958679927617903,4.592584766593753,1533046.603907083,1.0,-4.0,-2.89198722236946,-1.0,1.0
357.5000000000128,11303.20671053138,45997.44407867866,-136.59700658871992,-1139.2088938524923,1.3971512442725076,0.004344704405438269,-3.1959023204981962,4.593053564770703,1530808.8403126365,1.0,-4.0,-3.002788500132514,-1.0,1.0
357.6000000000128,11289.651907815229,45883.94210549196,-135.5480271615191,-1135.0197318669766,1.3976595391872557,0.005082949147483929,-3.1958688716769683,4.593528410864223,1528571.1286066582,1.0,-4.0,-3.1025096501192624,-1.0,1.0
357.70000000001284,11276.202296203732,45770.85975964355,-134.4961161149779,-1130.8234584840914,1.3982437841823463,0.005842449950904388,-3.195764864140614,4.59400864832296,1526333.4650492063,1.0,-4.0,-3.192258685107336,-1.0,1.0
357.80000000001286,11262.85809011825,45658.19777146851,-133.4420608548162,-1126.619881750364,1.3989058909799956,0.006621067976492111,-3.1955877473895105,4.594493638369507,1524095.8459990155,1.0,-4.0,-3.2730328165966025,-1.0,1.0
357.9000000000129,11249.619421000649,45545.9568915878,-132.38669117601358,-1122.4087988071876,1.3996475420240624,0.007416510440670306,-3.1953351524602454,4.594982694484307,1521858.2670721274,1.0,-3.984498383450065,-3.344179373281949,-0.9961245958625162,1.0
358.0000000000129,11236.486223492537,45434.13791765784,-131.33197508112917,-1118.1897392995695,1.4004695959325415,0.008220539084791171,-3.1950044922924183,4.59547408822496,1519620.7090553252,1.0,-3.709023953844156,-3.3806638313381696,-0.927255988461039,1.0
358.1000000000129,11223.45824278369,45322.74169254838,-130.27980708845755,-1113.962251094642,1.4013721336098572,0.009025376773156471,-3.1945939984442653,4.595966132054124,1517383.1532002678,1.0,-3.4181582545654914,-3.384413273660902,-0.8545395636413728,1.0
358.20000000001295,11210.535042687206,45211.769102024555,-129.2320009648478,-1109.7259052382335,1.4023545061179183,0.009823725080610498,-3.1941026808557127,4.59645718697363,1515145.58184313,1.0,-3.1146109427045876,-3.357433040565271,-0.7786527356761468,1.0
358.300000000013,11197.71601432043,45101.22107202122,-128.19028366777775,-1105.4803000334027,1.4034153837087449,0.010608775908264104,-3.193530285444626,4.596945669153371,1512907.978901707,1.0,-2.8009126021996953,-3.3017809967287133,-0.7002281505499238,1.0
358.400000000013,11185.00038532477,44991.09856558542,-127.15628995657721,-1101.2250643580253,1.4045528057132082,0.011374220044634247,-3.192877250314633,4.59743005602784,1510670.3302598232,1.0,-2.4795106806581013,-3.2195539651216523,-0.6198776701645252,1.0
358.500000000013,11172.387229558983,44881.402579562346,-126.13155765787803,-1096.9598602307058,1.4057642309949714,0.01211425281763277,-3.1921446608693844,4.597908891864356,1508432.624044391,1.0,-2.1527616273983163,-3.112874731349319,-0.5381904068495791,1.0
358.60000000001304,11159.875477201704,44772.134141097646,-125.11752357278243,-1092.6843846470365,1.407046588692862,0.012823576978909429,-3.1913342041133674,4.598380792806229,1506194.8508021338,1.0,-1.8229240102710111,-2.983879659241488,-0.4557310025677528,1.0
358.70000000001306,11147.463925200196,44663.29430402571,-124.11552001506816,-1088.3983707193852,1.4083963289887933,0.01349740295931112,-3.1904481224048924,4.598844451393686,1503957.0035843158,1.0,-1.4921525802763163,-2.834706951344971,-0.373038145069079,1.0
358.8000000000131,11135.151248003087,44554.88414520942,-123.12677197108462,-1084.1015881628666,1.4098094736519757,0.014131446631824194,-3.1894891669129084,4.599298640564884,1501719.077948836,1.0,-1.1624932099111582,-2.6674855772015897,-0.29062330247778956,1.0
358.9000000000131,11122.936008515811,44446.90476089162,-122.15239487274737,-1079.7938431779667,1.4112816661236336,0.014721924716578662,-3.188460551015586,4.599742217139219,1499481.0718897372,1.0,-0.8358786366826454,-2.484324883149695,-0.20896965917066135,1.0
359.00000000001313,11110.816669218295,44339.35726311298,-121.19339297516704,-1075.4749777864552,1.412808220919778,0.015265547961445728,-3.187365903865451,4.600174124785229,1497242.985704597,1.0,-0.5141249497863849,-2.287304889813364,-0.12853123744659622,1.0
359.10000000001315,11098.7916033853,44232.2427762448,-120.2506583299489,-1071.1448686818128,1.414384172142928,0.015759512231498147,-3.1862092243329387,4.600593396475867,1495004.8218104183,1.0,-0.19892876576737667,-2.078467277408765,-0.04973219144184416,1.0
359.2000000000132,11086.85910635089,44125.562433678955,-119.32497034410109,-1066.8034256584722,1.416004320907036,0.016201487641080196,-3.1849948355277427,4.60099915643478,1492766.58451855,1.0,0.10813495327512933,-1.8598070543403757,0.027033738318782332,1.0
359.3000000000132,11075.017406759605,44019.31737471037,-118.41699591285308,-1062.4505896858182,1.4176632814933707,0.01658960586334765,-3.183727340085046,4.601390621578417,1490528.279778888,1.0,0.4056144775437229,-1.633264901151966,0.10140361938593072,1.0
359.4000000000132,11063.264677748346,43913.50874164105,-117.52729011259063,-1058.0863306932115,1.4193555260687443,0.016922445753734368,-3.1824115763916345,4.6017671024603795,1488289.9149031283,1.0,0.6921823149880191,-1.4007201795379673,0.17304557874700477,1.0
359.50000000001324,11051.59904800458,43808.13767712792,-116.65629743765692,-1053.7106451313944,1.4210754278113136,0.017199017425694164,-3.1810525759148573,4.602128003726171,1486051.498276236,1.0,0.9666356697664069,-1.16398459460753,0.24165891744160173,1.0
359.60000000001327,11040.018612648375,43703.205321790556,-115.80435356205702,-1049.3235533736301,1.4228173023032196,0.01741874491905782,-3.179655521785527,4.602472824088746,1483813.039064557,1.0,1.2278963739679627,-0.9247964977499807,0.3069740934919907,1.0
359.7000000000133,11028.52144388795,43598.71281208886,-114.97168760424405,-1044.9250970169437,1.4245754470635426,0.017581447603233106,-3.178225708773753,4.602801155837295,1481574.5469281652,1.0,1.4750103089542557,-0.6848158170795571,0.3687525772385639,1.0
359.8000000000133,11017.105601400923,43494.66127847486,-114.1584248702693,-1040.515336139996,1.4263441791094487,0.01768732045906188,-3.1767685047847776,4.603112683894226,1479336.0317441423,1.0,1.7071463303111614,-0.44561960234048525,0.42678658257779034,1.0
359.90000000001334,11005.769142396148,43391.0518438179,-113.36459004774801,-1036.0943465695805,1.4281178704478752,0.01773691338426325,-3.1752893139896736,4.603407184437549,1477097.50334654,1.0,1.9235947087862042,-0.2086981712278163,0.48089867719655105,1.0
360.00000000001336,10994.510063179494,43287.885153266805,-112.59079216654541,-1031.6669055109273,1.4298909775384288,0.017731070905534992,-3.17379338302521,4.603684360563638,1474860.915638698,0.9990499877256092,2.1256122159588937,0.02473286749085471,0.5314030539897234,0.9980999754512183
360.1000000000134,10983.325920130917,43185.15860274303,-111.84143048576091,-1027.2655052377547,1.431658082808253,0.01767105269824263,-3.1722850781713254,4.603943160979579,1472639.6742578696,0.991554408504542,2.3257176072384733,0.2548313414656166,0.5814294018096183,0.983108817009084
360.2000000000134,10972.214316382195,43082.86960078214,-111.11603748722725,-1022.8900196088707,1.4334139400804244,0.01755857272171504,-3.1707698237414395,4.604183763821864,1470433.6111896897,0.9841450680927297,2.514684662793564,0.4808166735984113,0.628671165698391,0.9682901361854594
360.3000000000134,10961.172908852763,42981.01556362161,-110.41407529431834,-1018.5403716053768,1.435153498466977,0.017395583865525404,-3.1692529285006046,4.604406426967582,1468242.5772001985,0.976812411695297,2.687923104868265,0.7015273167253967,0.6719807762170662,0.953624823390594
360.40000000001345,10950.19941524777,42879.59391473731,-109.73493604993743,-1014.2164888429782,1.4368719236189034,0.0171842515192653,-3.1677395609398604,4.604611484558763,1466066.4241550001,0.9695554621931419,2.845112946845926,0.9158858797374496,0.7112782367114815,0.9391109243862839
360.5000000000135,10939.291620461076,42778.602084572514,-109.07794786693592,-1009.9183016479152,1.4385646166612298,0.016926930423265315,-3.166234725849393,4.604799342510623,1463905.0049164721,0.9623732451619853,2.985913486993595,1.1228886404630642,0.7464783717483987,0.9247464903239706
360.6000000000135,10928.44738237521,42678.03751044263,-108.44238085865659,-1005.6457412988781,1.4402272308367825,0.016626141755523953,-3.1647432429769355,4.604970473813719,1461758.1732460123,0.9552648001174902,3.1100794127141977,1.3216077176881775,0.7775198531785494,0.9105296002349803
360.7000000000135,10917.664637053267,42577.89763659302,-107.8274532194319,-1001.3987384960413,1.4418556858923801,0.01628455055597777,-3.1632697277701936,4.605125413662574,1459625.783733507,0.9482291806297546,3.217458861608288,1.5111928320801886,0.804364715402072,0.8964583612595092
360.80000000001354,10906.941403321407,42478.17991438716,-107.232337318608,-997.1772220585768,1.443446180250506,0.01590494358125733,-3.16181857419395,4.605264754444456,1457507.6917529404,0.9412654544176914,3.3079911559384794,1.690872664466018,0.8269977889846198,0.8825309088353828
360.90000000001356,10896.275786744112,42378.881802602395,-106.6561657729439,-992.9811178476486,1.4449952010182443,0.015490207677385235,-3.1603939396033196,4.605389140621564,1455403.7534426432,0.9343727034048607,3.381704143014472,1.8599558123208635,0.845426035753618,0.8687454068097213
361.0000000000136,10885.665982997734,42280.0007678116,-106.09803746377919,-988.8103479079095,1.4464995318934188,0.015043308751745782,-3.1589997316459137,4.605499263539333,1453313.8257082861,0.9275500237340918,3.438711160835971,2.017831347172374,0.8596777902089927,0.8551000474681836
361.1000000000136,10875.110280651019,42181.5342848299,-105.5570234671502,-984.6648298170252,1.4479562590353354,0.014567271419168682,-3.1576395971572526,4.605595856192588,1451237.7662464085,0.9207965257393322,3.479207651598203,2.163968977614957,0.8698019128995508,0.8415930514786645
361.20000000001363,10864.607063364316,42083.47983720692,-105.0321728670273,-980.544476229775,1.4493627749743552,0.014065159390194521,-3.1563169130058593,4.6056796879802135,1449175.4335860214,0.914111333874426,3.5034674491177333,2.297918824765235,0.8758668622794333,0.828222667748852
361.30000000001365,10854.154811521916,41985.83491774683,-104.5225184240094,-976.4491946008374,1.4507167806406163,0.013540056662609542,-3.1550347788369857,4.605751559477602,1447126.687145645,0.9074935865995272,3.5118387691320914,2.4193108192019204,0.8779596922830227,0.8149871731990543
361.4000000000137,10843.752103314506,41888.597029039986,-104.02708207410343,-972.3788870684623,1.452016285597639,0.012995049570232875,-3.153796011657031,4.605812297254671,1445091.3873030231,0.9009424362268312,3.5047399339910847,2.527853730680837,0.8761849834977712,0.8018848724536625
361.5000000000137,10833.397615291045,41791.763683992,-103.54488023459862,-968.3334504798688,1.453259606571219,0.01243320973579764,-3.1526031421943603,4.605862748765579,1443069.3954747154,0.8944570487281461,3.4826548649597853,2.623333844108732,0.8706637162399463,0.7889140974562923
361.6000000000137,10823.090122401398,41695.332406338166,-103.07492889647995,-964.3127765383489,1.4544453643679853,0.011857577967661286,-3.151458412966482,4.6059037773344675,1441060.5742027771,0.888036603507534,3.4461283769965387,2.7056132973975124,0.8615320942491347,0.776073207015068
361.70000000001374,10812.82849755287,41599.30073113299,-102.616248485275,-960.3167520516995,1.4555724792812943,0.011271149133089721,-3.150363777978456,4.60593625725975,1439064.787245803,0.8816802931428512,3.3957613113417184,2.774628098791933,0.8489403278354296,0.7633605862857025
361.80000000001377,10802.611710705403,41503.66620520682,-102.16786847466301,-956.3452592616943,1.456640165084699,0.010676858034046841,-3.1493209039728822,4.605961069057582,1437081.8996717336,0.8753873231004473,3.3322055416087184,2.8303858430736115,0.8330513854021796,0.7507746462008946
361.9000000000138,10792.438827531447,41408.42638758334,-101.72883173956414,-952.3981762348159,1.4576479217151836,0.01007756630484535,-3.1483311731480232,4.605979094863207,1435111.7779499842,0.8691569114275925,3.2561588885940203,2.8729631476256525,0.8140397221485051,0.7383138228551851
362.0000000000138,10782.309007667673,41313.57884985381,-101.29819863774746,-948.4753772953381,1.4585955267496555,0.009476050344723062,-3.1473956872573967,4.6059912140070525,1433154.2900406548,0.8629882884274446,3.1683599782123832,2.9025028306843255,0.7920899945530958,0.7259765768548891
362.10000000001384,10772.22150258655,41219.121176505505,-100.87505081122754,-944.5767334830418,1.4594830257789,0.008874990292442108,-3.1465152730016075,4.6059982987805075,1431209.3054788115,0.8568806963213721,3.0695830754917077,2.9192108551650637,0.7673957688729269,0.7137613926427442
362.20000000001386,10762.175653116465,41125.050965203576,-100.45849470084761,-940.7021130192946,1.4603107217833389,0.008276960044388191,-3.1456904886212538,4.6060012104045915,1429276.695452083,0.850833388903457,2.960632926169654,2.9233530622655226,0.7401582315424134,0.7016667778069141
362.3000000000139,10752.170886639518,41031.365827026886,-100.04766476945892,-936.8513817668909,1.461079163614579,0.007684418312401058,-3.1449216315983386,4.606000795212918,1427356.3328700836,0.8448456311918469,2.8423396350065517,2.9152517195396257,0.7105849087516379,0.6896912623836937
362.4000000000139,10742.206713996418,40938.0633866598,-99.64172643099687,-933.0244036708624,1.4617891336858486,0.007099700712693365,-3.1442087473728573,4.6059978810587054,1425448.0924244556,0.8389166990813811,2.7155536082702425,2.8952819084126875,0.6788884020675605,0.6778333981627622
362.5000000000139,10732.282726127967,40845.14128254286,-99.23987868451866,-929.2210411693908,1.4624416349731209,0.006525012872725652,-3.143551638980921,4.6059932739540415,1423551.8506386024,0.8330458790016416,2.5811405850096736,2.8638677760723863,0.6452851462524184,0.6660917580032832
362.60000000001395,10722.398590482577,40752.59716698627,-98.84135645390552,-925.4411555659269,1.4630378774269994,0.0059624245387861225,-3.1429498775209948,4.605987754947995,1421667.4859064675,0.8272324675841584,2.4399767797394185,2.8214786764390896,0.6099941949348546,0.6544649351683167
362.700000000014,10712.554047219031,40660.42870625071,-98.44543263544718,-921.6846073556025,1.463579263893326,0.005413864663267061,-3.142402813355545,4.60598207724887,1419794.8785199777,0.8214757713421227,2.2929441566703224,2.768625224462213,0.5732360391675806,0.6429515426842454
362.800000000014,10702.74890523334,40568.63358060061,-98.05141985691873,-917.9512565009654,1.4640673756380485,0.004881117447224819,-3.1419095879564054,4.605976963594454,1417933.9106850312,0.8157751063654892,2.1409258530601716,2.705855287322009,0.5352314632650429,0.6315502127309784
362.900000000014,10692.983038038037,40477.20948433522,-97.6586719530392,-914.240962653943,1.4645039575691212,0.004365819310728143,-3.141469146303754,4.605973103872874,1416084.466526151,0.8101297980338127,1.9848017675968934,2.6337499353494973,0.49620044189922335,0.6202595960676254
363.00000000001404,10683.256379521701,40386.15412580295,-97.26658516336903,-910.553585322702,1.4648909032451947,0.003869456760732723,-3.1410802497503068,4.605971152995501,1414246.4320801366,0.8045391807487862,1.8254443270872676,2.5529193745232743,0.4563610817718169,0.6090783614975723
363.10000000001406,10673.568919615724,40295.46522740457,-96.87459905976931,-906.8889839837105,1.465230239757568,0.003393365123738989,-3.1407414892645633,4.605971729022132,1412419.695279251,0.7990025976877727,1.6637144432773054,2.4639988813986773,0.41592861081932636,0.5980051953755454
363.2000000000141,10663.920699894572,40205.1405255905,-96.48219721151419,-903.2470181407805,1.4655241125683962,0.002938728108280493,-3.1404512989693165,4.605975411537712,1410604.1459246415,0.7935194005793182,1.5004576696814083,2.367644760226951,0.37511441742035206,0.5870388011586365
363.3000000000141,10654.31180913487,40115.17777085708,-96.0889075970245,-899.6275473341726,1.46577477038443,0.0025065781603320937,-3.1402079698942753,4.605982740278706,1408799.675650841,0.7880889495010203,1.336500566841471,2.264530340888403,0.3341251417103677,0.5761778990020405
363.40000000001413,10644.74237885767,40025.57472774669,-95.69430277198289,-896.030431103964,1.4659845501417297,0.0020977975730003496,-3.140009663864601,4.605994214006331,1407006.1778823133,0.7827106126997447,1.1726472832699433,2.155342035126557,0.29316182081748576,0.5654212253994895
363.50000000001415,10635.212578877241,39936.329174855404,-95.29799980430015,-892.4555289127998,1.4661558621727653,0.001713120310355912,-3.1398544274501696,4.606010289622935,1405223.5477830851,0.7773837664337613,1.0096763578012296,2.040775467394024,0.2524190894503074,0.5547675328675226
363.6000000000142,10625.722612878537,39847.43890485202,-94.8996599870354,-888.9027000338754,1.4662911756231618,0.0013531345039684403,-3.139740205903662,4.606031381526825,1403451.6822005827,0.7721077948359782,0.8483377484834111,1.9215316955029627,0.2120844371208528,0.5442155896719565
